Counter,Channel1,Channel2,Channel3,Channel4,Channel5,Channel6
0,505.0,444.0,399.0,372.0,370.0,360.0
1,494.0,472.0,444.0,415.0,387.0,369.0
2,484.0,478.0,465.0,446.0,419.0,396.0
3,483.0,478.0,470.0,458.0,432.0,408.0
4,482.0,479.0,474.0,467.0,453.0,432.0
5,484.0,478.0,473.0,468.0,453.0,436.0
6,481.0,477.0,473.0,470.0,464.0,451.0
7,485.0,478.0,473.0,468.0,459.0,448.0
8,486.0,481.0,475.0,471.0,467.0,459.0
9,486.0,480.0,474.0,469.0,461.0,454.0
10,486.0,482.0,477.0,472.0,469.0,463.0
11,486.0,481.0,476.0,470.0,463.0,457.0
12,487.0,482.0,478.0,473.0,472.0,466.0
13,481.0,478.0,474.0,470.0,463.0,459.0
14,483.0,479.0,475.0,471.0,470.0,466.0
15,485.0,479.0,474.0,469.0,462.0,458.0
16,484.0,480.0,475.0,471.0,469.0,465.0
17,484.0,478.0,473.0,468.0,461.0,457.0
18,477.0,475.0,472.0,469.0,467.0,464.0
19,448.0,453.0,455.0,456.0,454.0,453.0
20,428.0,434.0,439.0,442.0,451.0,453.0
21,444.0,437.0,434.0,433.0,435.0,438.0
22,499.0,476.0,460.0,449.0,445.0,443.0
23,571.0,537.0,508.0,485.0,458.0,447.0
24,693.0,640.0,595.0,556.0,509.0,481.0
25,811.0,750.0,696.0,646.0,571.0,523.0
26,931.0,868.0,809.0,753.0,666.0,598.0
27,1017.0,959.0,905.0,849.0,750.0,669.0
28,1016.0,991.0,958.0,918.0,836.0,753.0
29,935.0,947.0,945.0,930.0,874.0,804.0
30,797.0,843.0,874.0,890.0,882.0,839.0
31,596.0,672.0,734.0,782.0,822.0,817.0
32,498.0,555.0,610.0,665.0,744.0,776.0
33,509.0,520.0,544.0,579.0,653.0,704.0
34,486.0,494.0,506.0,527.0,591.0,648.0
35,482.0,481.0,484.0,493.0,533.0,585.0
36,475.0,474.0,475.0,478.0,508.0,550.0
37,460.0,461.0,461.0,462.0,476.0,508.0
38,451.0,452.0,453.0,453.0,466.0,490.0
39,451.0,448.0,446.0,444.0,447.0,464.0
40,448.0,446.0,444.0,442.0,447.0,458.0
41,451.0,445.0,441.0,437.0,435.0,442.0
42,452.0,448.0,443.0,439.0,440.0,443.0
43,458.0,451.0,445.0,439.0,433.0,433.0
44,462.0,456.0,450.0,445.0,442.0,440.0
45,467.0,460.0,453.0,447.0,438.0,433.0
46,467.0,462.0,457.0,452.0,448.0,443.0
47,475.0,466.0,460.0,453.0,444.0,438.0
48,477.0,471.0,465.0,459.0,453.0,446.0
49,482.0,474.0,468.0,461.0,450.0,443.0
50,486.0,480.0,474.0,468.0,462.0,454.0
51,492.0,484.0,477.0,470.0,459.0,451.0
52,493.0,488.0,482.0,476.0,470.0,462.0
53,499.0,491.0,485.0,478.0,467.0,459.0
54,504.0,498.0,491.0,485.0,479.0,471.0
55,508.0,501.0,494.0,487.0,476.0,468.0
56,509.0,504.0,498.0,493.0,487.0,479.0
57,516.0,508.0,501.0,494.0,484.0,475.0
58,519.0,513.0,506.0,500.0,495.0,487.0
59,527.0,518.0,510.0,503.0,492.0,483.0
60,531.0,525.0,518.0,511.0,505.0,497.0
61,533.0,526.0,520.0,513.0,502.0,493.0
62,542.0,534.0,527.0,520.0,514.0,505.0
63,547.0,538.0,531.0,523.0,511.0,502.0
64,552.0,545.0,538.0,531.0,524.0,514.0
65,561.0,551.0,543.0,535.0,522.0,512.0
66,566.0,558.0,551.0,544.0,535.0,525.0
67,571.0,562.0,555.0,547.0,534.0,523.0
68,579.0,570.0,563.0,556.0,547.0,537.0
69,585.0,576.0,568.0,560.0,546.0,535.0
70,587.0,581.0,574.0,568.0,560.0,549.0
71,593.0,585.0,577.0,570.0,557.0,547.0
72,597.0,590.0,583.0,577.0,568.0,558.0
73,598.0,591.0,584.0,578.0,565.0,555.0
74,600.0,594.0,588.0,583.0,577.0,567.0
75,597.0,592.0,587.0,581.0,571.0,563.0
76,595.0,591.0,587.0,583.0,580.0,572.0
77,595.0,589.0,585.0,580.0,572.0,566.0
78,590.0,587.0,584.0,580.0,578.0,573.0
79,584.0,580.0,578.0,574.0,569.0,565.0
80,567.0,569.0,569.0,569.0,571.0,569.0
81,554.0,554.0,555.0,555.0,555.0,556.0
82,538.0,540.0,542.0,544.0,552.0,555.0
83,522.0,524.0,526.0,528.0,532.0,537.0
84,503.0,507.0,511.0,514.0,527.0,534.0
85,487.0,489.0,492.0,495.0,503.0,513.0
86,473.0,475.0,478.0,481.0,495.0,505.0
87,464.0,463.0,464.0,466.0,473.0,483.0
88,455.0,455.0,456.0,457.0,467.0,477.0
89,448.0,447.0,446.0,446.0,449.0,458.0
90,440.0,439.0,439.0,439.0,447.0,455.0
91,435.0,433.0,431.0,430.0,431.0,437.0
92,434.0,432.0,429.0,428.0,432.0,437.0
93,432.0,428.0,425.0,422.0,420.0,423.0
94,430.0,427.0,424.0,422.0,424.0,426.0
95,430.0,426.0,422.0,418.0,414.0,415.0
96,432.0,428.0,423.0,420.0,419.0,418.0
97,440.0,432.0,426.0,420.0,413.0,410.0
98,439.0,434.0,430.0,425.0,422.0,418.0
99,444.0,437.0,431.0,425.0,417.0,412.0
100,446.0,440.0,435.0,430.0,427.0,421.0
101,447.0,441.0,436.0,430.0,422.0,416.0
102,448.0,444.0,439.0,434.0,431.0,425.0
103,450.0,444.0,439.0,434.0,426.0,420.0
104,453.0,448.0,443.0,438.0,435.0,429.0
105,457.0,450.0,444.0,438.0,430.0,424.0
106,457.0,452.0,447.0,442.0,439.0,433.0
107,460.0,453.0,447.0,442.0,433.0,428.0
108,464.0,458.0,452.0,447.0,444.0,439.0
109,468.0,460.0,454.0,448.0,440.0,433.0
110,468.0,463.0,458.0,453.0,449.0,443.0
111,470.0,463.0,458.0,453.0,444.0,438.0
112,468.0,464.0,460.0,456.0,452.0,447.0
113,474.0,467.0,461.0,455.0,447.0,441.0
114,475.0,470.0,465.0,460.0,456.0,450.0
115,473.0,468.0,463.0,458.0,450.0,445.0
116,475.0,471.0,466.0,462.0,459.0,453.0
117,477.0,471.0,466.0,461.0,453.0,447.0
118,479.0,474.0,469.0,464.0,461.0,456.0
119,483.0,476.0,470.0,464.0,456.0,450.0
120,483.0,478.0,473.0,468.0,464.0,458.0
121,482.0,477.0,472.0,467.0,458.0,452.0
122,487.0,482.0,476.0,471.0,467.0,461.0
123,487.0,481.0,476.0,470.0,462.0,456.0
124,487.0,483.0,478.0,474.0,470.0,465.0
125,487.0,482.0,477.0,472.0,464.0,459.0
126,487.0,483.0,479.0,475.0,472.0,467.0
127,488.0,482.0,477.0,473.0,465.0,460.0
128,492.0,487.0,481.0,477.0,474.0,468.0
129,494.0,488.0,482.0,476.0,468.0,462.0
130,494.0,489.0,485.0,480.0,477.0,471.0
131,496.0,490.0,484.0,479.0,471.0,465.0
132,497.0,493.0,488.0,483.0,481.0,475.0
133,496.0,491.0,486.0,481.0,474.0,468.0
134,495.0,491.0,487.0,483.0,481.0,476.0
135,494.0,489.0,484.0,480.0,473.0,469.0
136,495.0,491.0,486.0,482.0,480.0,476.0
137,493.0,489.0,484.0,479.0,473.0,469.0
138,492.0,489.0,485.0,481.0,479.0,476.0
139,492.0,488.0,483.0,478.0,472.0,468.0
140,494.0,490.0,485.0,481.0,479.0,475.0
141,492.0,488.0,483.0,478.0,471.0,467.0
142,495.0,491.0,486.0,481.0,479.0,475.0
143,495.0,490.0,485.0,480.0,472.0,468.0
144,497.0,492.0,487.0,483.0,479.0,474.0
145,499.0,493.0,487.0,482.0,473.0,468.0
146,501.0,496.0,491.0,486.0,482.0,477.0
147,498.0,493.0,489.0,484.0,476.0,470.0
148,496.0,493.0,489.0,485.0,483.0,478.0
149,496.0,491.0,487.0,482.0,476.0,471.0
150,494.0,491.0,487.0,484.0,482.0,478.0
151,499.0,493.0,487.0,482.0,475.0,471.0
152,502.0,497.0,491.0,486.0,483.0,479.0
153,503.0,497.0,491.0,485.0,477.0,472.0
154,503.0,498.0,494.0,489.0,486.0,481.0
155,502.0,497.0,492.0,487.0,479.0,474.0
156,503.0,499.0,494.0,490.0,488.0,483.0
157,503.0,498.0,493.0,488.0,481.0,476.0
158,500.0,497.0,493.0,490.0,488.0,483.0
159,500.0,495.0,491.0,487.0,480.0,476.0
160,503.0,498.0,493.0,489.0,487.0,483.0
161,502.0,497.0,492.0,487.0,480.0,476.0
162,504.0,500.0,495.0,490.0,487.0,483.0
163,504.0,499.0,494.0,489.0,481.0,476.0
164,504.0,500.0,496.0,491.0,489.0,484.0
165,508.0,502.0,496.0,491.0,483.0,478.0
166,508.0,504.0,499.0,494.0,491.0,486.0
167,512.0,505.0,499.0,493.0,485.0,479.0
168,507.0,504.0,500.0,496.0,492.0,486.0
169,507.0,503.0,498.0,493.0,485.0,480.0
170,508.0,504.0,500.0,496.0,493.0,488.0
171,512.0,506.0,500.0,495.0,487.0,482.0
172,514.0,509.0,504.0,499.0,495.0,490.0
173,518.0,511.0,505.0,499.0,490.0,484.0
174,523.0,517.0,511.0,505.0,500.0,494.0
175,525.0,519.0,512.0,506.0,496.0,489.0
176,530.0,525.0,518.0,512.0,506.0,499.0
177,541.0,532.0,524.0,516.0,504.0,495.0
178,545.0,538.0,531.0,524.0,516.0,507.0
179,548.0,541.0,534.0,527.0,514.0,505.0
180,551.0,546.0,540.0,534.0,528.0,519.0
181,540.0,538.0,534.0,530.0,521.0,514.0
182,529.0,530.0,529.0,527.0,527.0,521.0
183,529.0,526.0,523.0,520.0,516.0,512.0
184,532.0,528.0,524.0,521.0,521.0,518.0
185,532.0,527.0,522.0,517.0,512.0,509.0
186,530.0,526.0,522.0,519.0,518.0,515.0
187,522.0,520.0,517.0,513.0,508.0,505.0
188,514.0,514.0,512.0,510.0,511.0,510.0
189,508.0,506.0,504.0,502.0,499.0,499.0
190,489.0,493.0,494.0,495.0,499.0,500.0
191,482.0,482.0,482.0,482.0,483.0,486.0
192,483.0,481.0,479.0,478.0,482.0,484.0
193,487.0,481.0,477.0,473.0,470.0,472.0
194,487.0,484.0,479.0,475.0,475.0,475.0
195,485.0,481.0,477.0,472.0,466.0,465.0
196,487.0,483.0,479.0,475.0,473.0,471.0
197,489.0,484.0,478.0,473.0,466.0,463.0
198,487.0,484.0,480.0,476.0,473.0,470.0
199,486.0,482.0,477.0,473.0,466.0,462.0
200,486.0,483.0,479.0,475.0,473.0,470.0
201,486.0,482.0,477.0,472.0,466.0,462.0
202,487.0,483.0,479.0,475.0,473.0,469.0
203,490.0,484.0,479.0,474.0,466.0,462.0
204,490.0,487.0,482.0,477.0,476.0,471.0
205,490.0,486.0,480.0,476.0,469.0,464.0
206,490.0,487.0,482.0,478.0,476.0,472.0
207,483.0,480.0,477.0,473.0,467.0,464.0
208,454.0,461.0,463.0,465.0,468.0,467.0
209,430.0,437.0,442.0,446.0,450.0,452.0
210,440.0,438.0,437.0,438.0,447.0,451.0
211,495.0,474.0,458.0,448.0,441.0,441.0
212,559.0,530.0,504.0,483.0,465.0,456.0
213,682.0,630.0,585.0,548.0,500.0,475.0
214,808.0,747.0,692.0,643.0,576.0,530.0
215,923.0,860.0,801.0,745.0,654.0,589.0
216,1018.0,959.0,903.0,847.0,753.0,673.0
217,1016.0,990.0,955.0,913.0,825.0,742.0
218,938.0,951.0,948.0,933.0,880.0,809.0
219,813.0,854.0,880.0,893.0,877.0,832.0
220,605.0,685.0,746.0,793.0,836.0,828.0
221,502.0,560.0,616.0,670.0,744.0,774.0
222,508.0,523.0,550.0,587.0,667.0,718.0
223,495.0,499.0,510.0,530.0,590.0,647.0
224,480.0,484.0,489.0,499.0,546.0,598.0
225,470.0,472.0,473.0,476.0,502.0,546.0
226,462.0,464.0,464.0,465.0,485.0,518.0
227,455.0,455.0,454.0,453.0,461.0,485.0
228,456.0,454.0,452.0,450.0,459.0,476.0
229,452.0,449.0,446.0,444.0,444.0,456.0
230,454.0,451.0,447.0,444.0,447.0,454.0
231,456.0,452.0,447.0,442.0,437.0,441.0
232,459.0,455.0,450.0,446.0,444.0,445.0
233,461.0,456.0,450.0,445.0,438.0,436.0
234,465.0,461.0,455.0,450.0,447.0,444.0
235,473.0,466.0,459.0,452.0,443.0,438.0
236,474.0,470.0,464.0,458.0,454.0,448.0
237,479.0,473.0,466.0,460.0,450.0,444.0
238,485.0,480.0,473.0,467.0,462.0,455.0
239,488.0,482.0,475.0,469.0,459.0,451.0
240,495.0,489.0,482.0,476.0,469.0,461.0
241,500.0,493.0,486.0,479.0,467.0,459.0
242,501.0,497.0,491.0,485.0,479.0,470.0
243,503.0,498.0,492.0,486.0,475.0,467.0
244,506.0,502.0,496.0,491.0,486.0,478.0
245,512.0,505.0,498.0,492.0,482.0,475.0
246,516.0,511.0,504.0,498.0,493.0,485.0
247,522.0,515.0,507.0,500.0,489.0,481.0
248,520.0,516.0,511.0,505.0,500.0,492.0
249,523.0,518.0,512.0,506.0,496.0,488.0
250,528.0,523.0,517.0,511.0,506.0,499.0
251,534.0,527.0,520.0,513.0,502.0,495.0
252,542.0,536.0,528.0,521.0,516.0,507.0
253,549.0,541.0,533.0,525.0,513.0,504.0
254,555.0,548.0,541.0,534.0,526.0,517.0
255,562.0,554.0,546.0,538.0,525.0,515.0
0,570.0,563.0,555.0,547.0,538.0,528.0
1,579.0,570.0,561.0,552.0,538.0,527.0
2,580.0,575.0,568.0,561.0,552.0,541.0
3,585.0,579.0,571.0,564.0,551.0,540.0
4,592.0,586.0,578.0,572.0,564.0,553.0
5,593.0,587.0,580.0,573.0,561.0,551.0
6,596.0,591.0,585.0,579.0,573.0,563.0
7,598.0,592.0,586.0,579.0,569.0,560.0
8,600.0,595.0,590.0,584.0,578.0,569.0
9,594.0,591.0,587.0,582.0,572.0,565.0
10,594.0,592.0,588.0,584.0,580.0,574.0
11,591.0,588.0,584.0,579.0,572.0,567.0
12,582.0,582.0,580.0,578.0,577.0,573.0
13,571.0,572.0,570.0,569.0,565.0,563.0
14,554.0,559.0,560.0,561.0,565.0,565.0
15,542.0,544.0,545.0,546.0,548.0,550.0
16,525.0,529.0,532.0,534.0,543.0,548.0
17,511.0,513.0,515.0,517.0,523.0,529.0
18,493.0,498.0,501.0,504.0,516.0,524.0
19,481.0,483.0,485.0,487.0,494.0,503.0
20,471.0,474.0,475.0,477.0,489.0,498.0
21,465.0,465.0,464.0,464.0,469.0,478.0
22,455.0,457.0,457.0,457.0,466.0,474.0
23,448.0,448.0,447.0,447.0,449.0,456.0
24,445.0,445.0,443.0,442.0,448.0,454.0
25,442.0,440.0,438.0,435.0,435.0,439.0
26,445.0,442.0,438.0,435.0,438.0,441.0
27,442.0,439.0,435.0,431.0,428.0,429.0
28,443.0,440.0,436.0,433.0,433.0,433.0
29,442.0,439.0,434.0,430.0,425.0,424.0
30,443.0,440.0,436.0,432.0,431.0,430.0
31,447.0,442.0,436.0,431.0,425.0,422.0
32,449.0,446.0,440.0,435.0,432.0,428.0
33,451.0,446.0,441.0,435.0,427.0,422.0
34,449.0,447.0,443.0,439.0,436.0,431.0
35,451.0,447.0,442.0,437.0,430.0,425.0
36,453.0,449.0,445.0,440.0,438.0,433.0
37,456.0,451.0,445.0,440.0,432.0,427.0
38,458.0,454.0,449.0,444.0,441.0,436.0
39,464.0,458.0,451.0,445.0,436.0,431.0
40,460.0,459.0,454.0,449.0,446.0,440.0
41,463.0,459.0,453.0,448.0,440.0,434.0
42,467.0,463.0,457.0,453.0,449.0,444.0
43,468.0,463.0,458.0,452.0,444.0,438.0
44,473.0,469.0,463.0,458.0,455.0,449.0
45,478.0,472.0,465.0,459.0,450.0,444.0
46,481.0,477.0,470.0,465.0,460.0,454.0
47,480.0,476.0,470.0,465.0,455.0,449.0
48,481.0,478.0,473.0,469.0,465.0,459.0
49,482.0,478.0,473.0,468.0,459.0,453.0
50,488.0,483.0,477.0,472.0,469.0,463.0
51,490.0,485.0,478.0,472.0,463.0,457.0
52,490.0,487.0,481.0,477.0,473.0,467.0
53,493.0,487.0,482.0,476.0,468.0,462.0
54,494.0,490.0,485.0,480.0,477.0,471.0
55,492.0,488.0,483.0,478.0,470.0,465.0
56,493.0,490.0,485.0,481.0,477.0,472.0
57,497.0,492.0,486.0,480.0,471.0,466.0
58,494.0,492.0,487.0,483.0,480.0,475.0
59,493.0,489.0,485.0,480.0,473.0,468.0
60,494.0,491.0,487.0,483.0,480.0,476.0
61,496.0,491.0,486.0,481.0,473.0,469.0
62,494.0,492.0,487.0,483.0,481.0,476.0
63,498.0,493.0,487.0,482.0,474.0,470.0
64,494.0,492.0,488.0,484.0,482.0,477.0
65,494.0,490.0,485.0,481.0,474.0,470.0
66,497.0,493.0,488.0,484.0,482.0,477.0
67,497.0,493.0,487.0,482.0,475.0,470.0
68,503.0,498.0,492.0,487.0,485.0,480.0
69,502.0,497.0,491.0,486.0,478.0,474.0
70,495.0,494.0,491.0,487.0,485.0,481.0
71,498.0,494.0,489.0,484.0,478.0,473.0
72,499.0,496.0,491.0,487.0,485.0,481.0
73,505.0,499.0,492.0,487.0,479.0,474.0
74,501.0,498.0,494.0,490.0,487.0,482.0
75,496.0,493.0,489.0,485.0,479.0,475.0
76,498.0,495.0,491.0,487.0,485.0,481.0
77,499.0,495.0,489.0,485.0,478.0,474.0
78,502.0,498.0,493.0,488.0,486.0,482.0
79,502.0,498.0,492.0,487.0,479.0,475.0
80,508.0,502.0,496.0,491.0,487.0,482.0
81,504.0,501.0,495.0,490.0,481.0,476.0
82,507.0,503.0,498.0,494.0,490.0,484.0
83,509.0,503.0,498.0,493.0,484.0,479.0
84,504.0,502.0,498.0,494.0,492.0,487.0
85,504.0,500.0,496.0,491.0,484.0,479.0
86,503.0,501.0,497.0,493.0,491.0,487.0
87,504.0,500.0,495.0,490.0,483.0,479.0
88,501.0,499.0,495.0,492.0,490.0,486.0
89,503.0,499.0,494.0,489.0,483.0,479.0
90,503.0,500.0,495.0,491.0,489.0,485.0
91,506.0,500.0,495.0,490.0,482.0,478.0
92,505.0,502.0,497.0,493.0,491.0,487.0
93,508.0,503.0,497.0,492.0,485.0,480.0
94,508.0,505.0,500.0,495.0,493.0,488.0
95,512.0,506.0,500.0,494.0,486.0,481.0
96,509.0,507.0,502.0,497.0,494.0,489.0
97,512.0,507.0,501.0,496.0,488.0,483.0
98,515.0,510.0,505.0,500.0,497.0,491.0
99,521.0,514.0,507.0,501.0,492.0,486.0
100,525.0,520.0,513.0,507.0,502.0,495.0
101,537.0,528.0,519.0,511.0,499.0,492.0
102,547.0,538.0,529.0,521.0,513.0,504.0
103,547.0,541.0,533.0,525.0,512.0,502.0
104,547.0,543.0,537.0,531.0,523.0,513.0
105,546.0,541.0,536.0,530.0,519.0,510.0
106,537.0,536.0,534.0,531.0,527.0,520.0
107,530.0,528.0,526.0,524.0,518.0,513.0
108,531.0,528.0,525.0,523.0,523.0,519.0
109,530.0,526.0,522.0,518.0,513.0,510.0
110,529.0,526.0,522.0,519.0,518.0,516.0
111,531.0,526.0,520.0,516.0,509.0,506.0
112,519.0,519.0,517.0,514.0,514.0,512.0
113,512.0,511.0,509.0,507.0,503.0,501.0
114,497.0,500.0,500.0,500.0,504.0,504.0
115,488.0,489.0,488.0,488.0,489.0,490.0
116,485.0,484.0,483.0,483.0,489.0,492.0
117,488.0,484.0,479.0,477.0,476.0,478.0
118,489.0,485.0,481.0,478.0,479.0,481.0
119,489.0,484.0,479.0,475.0,470.0,470.0
120,488.0,485.0,481.0,477.0,476.0,475.0
121,489.0,484.0,479.0,474.0,468.0,466.0
122,491.0,487.0,482.0,477.0,475.0,472.0
123,489.0,485.0,480.0,475.0,468.0,465.0
124,489.0,486.0,482.0,478.0,476.0,472.0
125,490.0,485.0,480.0,476.0,469.0,465.0
126,490.0,486.0,482.0,478.0,476.0,472.0
127,492.0,487.0,481.0,476.0,469.0,465.0
128,497.0,492.0,486.0,481.0,476.0,472.0
129,499.0,493.0,487.0,481.0,472.0,466.0
130,494.0,492.0,488.0,483.0,480.0,475.0
131,486.0,484.0,481.0,478.0,472.0,467.0
132,459.0,465.0,467.0,469.0,473.0,471.0
133,437.0,443.0,447.0,451.0,455.0,457.0
134,445.0,443.0,442.0,443.0,452.0,456.0
135,499.0,477.0,462.0,452.0,445.0,445.0
136,549.0,524.0,501.0,483.0,467.0,459.0
137,679.0,625.0,581.0,545.0,500.0,476.0
138,811.0,748.0,691.0,641.0,575.0,530.0
139,926.0,861.0,802.0,744.0,653.0,588.0
140,991.0,942.0,892.0,841.0,751.0,673.0
141,959.0,946.0,922.0,890.0,812.0,735.0
142,863.0,887.0,895.0,891.0,853.0,792.0
143,746.0,788.0,818.0,838.0,836.0,803.0
144,544.0,621.0,682.0,732.0,785.0,789.0
145,485.0,527.0,573.0,622.0,694.0,730.0
146,486.0,498.0,518.0,550.0,623.0,675.0
147,510.0,501.0,501.0,512.0,560.0,611.0
148,492.0,493.0,492.0,495.0,529.0,572.0
149,478.0,479.0,479.0,479.0,496.0,530.0
150,475.0,475.0,474.0,473.0,486.0,511.0
151,469.0,468.0,466.0,464.0,467.0,484.0
152,465.0,464.0,462.0,461.0,465.0,476.0
153,463.0,460.0,457.0,455.0,453.0,460.0
154,461.0,459.0,456.0,454.0,456.0,460.0
155,468.0,462.0,456.0,452.0,447.0,449.0
156,470.0,465.0,460.0,455.0,454.0,453.0
157,475.0,468.0,462.0,456.0,448.0,446.0
158,479.0,473.0,467.0,462.0,458.0,454.0
159,479.0,473.0,468.0,462.0,453.0,448.0
160,485.0,479.0,473.0,468.0,463.0,458.0
161,486.0,480.0,474.0,468.0,459.0,453.0
162,491.0,486.0,480.0,474.0,469.0,463.0
163,496.0,489.0,482.0,476.0,466.0,459.0
164,500.0,494.0,488.0,482.0,478.0,471.0
165,503.0,496.0,489.0,483.0,474.0,467.0
166,511.0,504.0,497.0,490.0,485.0,477.0
167,515.0,507.0,500.0,493.0,482.0,474.0
168,519.0,513.0,506.0,500.0,494.0,486.0
169,522.0,516.0,509.0,502.0,491.0,483.0
170,530.0,523.0,516.0,509.0,503.0,494.0
171,531.0,524.0,518.0,511.0,500.0,491.0
172,537.0,530.0,524.0,518.0,511.0,503.0
173,545.0,536.0,528.0,521.0,509.0,500.0
174,547.0,541.0,534.0,528.0,521.0,512.0
175,549.0,543.0,536.0,529.0,518.0,509.0
176,556.0,549.0,542.0,536.0,528.0,519.0
177,562.0,554.0,546.0,539.0,526.0,517.0
178,570.0,563.0,555.0,548.0,540.0,530.0
179,572.0,566.0,558.0,551.0,538.0,528.0
180,580.0,573.0,565.0,559.0,551.0,541.0
181,587.0,578.0,570.0,562.0,549.0,539.0
182,591.0,585.0,577.0,570.0,562.0,552.0
183,594.0,587.0,580.0,573.0,560.0,550.0
184,597.0,591.0,585.0,579.0,572.0,562.0
185,602.0,594.0,587.0,580.0,569.0,559.0
186,600.0,596.0,591.0,585.0,579.0,570.0
187,598.0,593.0,588.0,583.0,574.0,566.0
188,598.0,594.0,590.0,586.0,584.0,577.0
189,597.0,592.0,588.0,583.0,576.0,570.0
190,595.0,592.0,588.0,584.0,582.0,577.0
191,590.0,587.0,583.0,579.0,573.0,569.0
192,580.0,580.0,578.0,576.0,577.0,574.0
193,565.0,566.0,566.0,565.0,563.0,562.0
194,553.0,555.0,556.0,557.0,562.0,564.0
195,536.0,539.0,540.0,541.0,544.0,548.0
196,522.0,525.0,527.0,530.0,539.0,544.0
197,502.0,506.0,509.0,511.0,518.0,525.0
198,484.0,489.0,493.0,497.0,510.0,519.0
199,478.0,478.0,479.0,481.0,488.0,497.0
200,470.0,470.0,470.0,472.0,481.0,490.0
201,460.0,460.0,459.0,459.0,463.0,471.0
202,451.0,452.0,452.0,452.0,460.0,467.0
203,444.0,444.0,443.0,442.0,444.0,450.0
204,443.0,442.0,440.0,439.0,444.0,449.0
205,442.0,438.0,435.0,432.0,431.0,435.0
206,444.0,440.0,436.0,433.0,435.0,437.0
207,443.0,438.0,434.0,430.0,426.0,426.0
208,440.0,438.0,435.0,431.0,431.0,431.0
209,441.0,437.0,432.0,428.0,423.0,422.0
210,436.0,435.0,432.0,429.0,429.0,427.0
211,435.0,432.0,428.0,425.0,420.0,418.0
212,436.0,433.0,429.0,426.0,427.0,425.0
213,442.0,436.0,430.0,425.0,420.0,417.0
214,442.0,438.0,433.0,429.0,427.0,424.0
215,447.0,440.0,434.0,429.0,421.0,417.0
216,449.0,444.0,439.0,434.0,430.0,426.0
217,456.0,448.0,442.0,435.0,426.0,421.0
218,457.0,452.0,446.0,441.0,437.0,431.0
219,458.0,453.0,447.0,441.0,432.0,426.0
220,462.0,457.0,451.0,446.0,442.0,436.0
221,464.0,458.0,452.0,446.0,437.0,431.0
222,462.0,458.0,454.0,450.0,446.0,440.0
223,465.0,460.0,454.0,449.0,441.0,435.0
224,470.0,465.0,459.0,454.0,449.0,443.0
225,475.0,468.0,461.0,455.0,445.0,438.0
226,478.0,473.0,467.0,461.0,456.0,449.0
227,481.0,475.0,468.0,462.0,452.0,445.0
228,482.0,478.0,472.0,467.0,463.0,455.0
229,486.0,479.0,473.0,468.0,458.0,451.0
230,484.0,481.0,476.0,471.0,467.0,461.0
231,487.0,482.0,476.0,470.0,462.0,456.0
232,491.0,486.0,480.0,475.0,471.0,465.0
233,494.0,488.0,482.0,476.0,467.0,460.0
234,493.0,489.0,484.0,479.0,476.0,470.0
235,498.0,492.0,485.0,479.0,471.0,464.0
236,497.0,493.0,488.0,484.0,481.0,475.0
237,497.0,492.0,487.0,482.0,474.0,469.0
238,499.0,494.0,490.0,485.0,483.0,477.0
239,498.0,493.0,488.0,483.0,476.0,471.0
240,499.0,495.0,490.0,486.0,483.0,479.0
241,497.0,493.0,488.0,483.0,476.0,471.0
242,497.0,493.0,489.0,485.0,483.0,479.0
243,497.0,492.0,487.0,483.0,476.0,472.0
244,497.0,493.0,489.0,485.0,483.0,479.0
245,494.0,490.0,486.0,482.0,475.0,471.0
246,495.0,491.0,487.0,483.0,482.0,478.0
247,496.0,491.0,486.0,481.0,474.0,470.0
248,496.0,492.0,487.0,483.0,480.0,476.0
249,499.0,493.0,487.0,482.0,474.0,469.0
250,498.0,494.0,490.0,485.0,482.0,477.0
251,499.0,494.0,489.0,484.0,476.0,471.0
252,503.0,498.0,492.0,488.0,484.0,479.0
253,502.0,497.0,491.0,486.0,478.0,473.0
254,499.0,496.0,492.0,488.0,486.0,481.0
255,497.0,493.0,489.0,485.0,478.0,474.0
0,499.0,495.0,490.0,486.0,485.0,481.0
1,497.0,493.0,488.0,484.0,477.0,473.0
2,495.0,492.0,488.0,485.0,484.0,480.0
3,500.0,493.0,488.0,483.0,476.0,472.0
4,502.0,497.0,492.0,487.0,485.0,481.0
5,503.0,497.0,491.0,486.0,478.0,474.0
6,496.0,494.0,491.0,487.0,485.0,481.0
7,499.0,494.0,489.0,485.0,478.0,474.0
8,501.0,496.0,492.0,487.0,485.0,481.0
9,501.0,496.0,490.0,485.0,478.0,474.0
10,500.0,496.0,492.0,488.0,485.0,481.0
11,503.0,497.0,491.0,486.0,479.0,474.0
12,507.0,502.0,496.0,491.0,488.0,483.0
13,512.0,505.0,498.0,492.0,483.0,477.0
14,514.0,508.0,502.0,497.0,492.0,486.0
15,509.0,505.0,500.0,495.0,486.0,480.0
16,513.0,508.0,503.0,498.0,494.0,488.0
17,517.0,510.0,504.0,498.0,489.0,483.0
18,525.0,518.0,511.0,505.0,499.0,493.0
19,536.0,526.0,517.0,509.0,497.0,489.0
20,539.0,532.0,525.0,518.0,510.0,501.0
21,539.0,533.0,526.0,520.0,507.0,498.0
22,543.0,538.0,532.0,526.0,519.0,510.0
23,544.0,538.0,532.0,526.0,515.0,507.0
24,534.0,533.0,530.0,527.0,523.0,516.0
25,526.0,524.0,522.0,520.0,514.0,509.0
26,529.0,525.0,522.0,519.0,519.0,515.0
27,529.0,524.0,519.0,515.0,510.0,506.0
28,531.0,526.0,521.0,517.0,517.0,514.0
29,526.0,522.0,518.0,513.0,508.0,505.0
30,520.0,519.0,516.0,513.0,513.0,510.0
31,512.0,510.0,508.0,505.0,502.0,500.0
32,501.0,502.0,501.0,501.0,504.0,503.0
33,492.0,491.0,491.0,490.0,489.0,490.0
34,490.0,488.0,487.0,486.0,490.0,492.0
35,494.0,488.0,484.0,480.0,478.0,479.0
36,492.0,489.0,485.0,481.0,482.0,482.0
37,493.0,488.0,483.0,478.0,473.0,472.0
38,493.0,489.0,485.0,481.0,480.0,478.0
39,490.0,486.0,482.0,477.0,471.0,469.0
40,489.0,486.0,482.0,478.0,476.0,473.0
41,488.0,484.0,479.0,475.0,468.0,465.0
42,488.0,484.0,480.0,477.0,475.0,472.0
43,488.0,483.0,478.0,474.0,468.0,464.0
44,485.0,482.0,478.0,475.0,474.0,470.0
45,485.0,480.0,476.0,471.0,465.0,462.0
46,483.0,480.0,476.0,473.0,472.0,469.0
47,486.0,480.0,475.0,470.0,464.0,461.0
48,488.0,483.0,478.0,474.0,472.0,468.0
49,479.0,477.0,473.0,469.0,463.0,460.0
50,450.0,457.0,459.0,461.0,464.0,463.0
51,428.0,434.0,439.0,442.0,446.0,449.0
52,446.0,441.0,438.0,438.0,446.0,450.0
53,501.0,478.0,461.0,450.0,442.0,441.0
54,563.0,534.0,508.0,487.0,467.0,457.0
55,695.0,639.0,593.0,554.0,504.0,477.0
56,812.0,753.0,698.0,649.0,580.0,533.0
57,915.0,856.0,801.0,746.0,657.0,591.0
58,975.0,930.0,884.0,836.0,750.0,673.0
59,944.0,932.0,911.0,880.0,807.0,732.0
60,849.0,873.0,882.0,879.0,844.0,786.0
61,741.0,780.0,809.0,828.0,827.0,795.0
62,553.0,625.0,682.0,728.0,779.0,782.0
63,491.0,532.0,576.0,622.0,691.0,725.0
64,494.0,504.0,524.0,553.0,623.0,672.0
65,502.0,498.0,501.0,513.0,559.0,609.0
66,479.0,483.0,485.0,491.0,526.0,570.0
67,469.0,470.0,471.0,472.0,491.0,526.0
68,463.0,463.0,463.0,464.0,479.0,505.0
69,459.0,457.0,455.0,454.0,459.0,477.0
70,454.0,453.0,451.0,450.0,456.0,469.0
71,455.0,451.0,447.0,444.0,443.0,452.0
72,458.0,453.0,449.0,446.0,447.0,452.0
73,457.0,453.0,448.0,443.0,438.0,440.0
74,458.0,454.0,450.0,446.0,445.0,445.0
75,462.0,456.0,450.0,445.0,438.0,436.0
76,468.0,462.0,456.0,451.0,449.0,445.0
77,470.0,464.0,458.0,452.0,444.0,439.0
78,474.0,468.0,463.0,457.0,454.0,448.0
79,475.0,469.0,464.0,458.0,449.0,443.0
80,482.0,476.0,469.0,464.0,459.0,453.0
81,483.0,477.0,471.0,465.0,455.0,449.0
82,488.0,482.0,476.0,471.0,466.0,459.0
83,492.0,485.0,478.0,472.0,462.0,455.0
84,494.0,489.0,483.0,478.0,473.0,465.0
85,501.0,493.0,486.0,479.0,469.0,462.0
86,506.0,499.0,493.0,486.0,481.0,473.0
87,507.0,500.0,494.0,488.0,477.0,469.0
88,515.0,508.0,501.0,495.0,488.0,479.0
89,518.0,510.0,503.0,496.0,485.0,476.0
90,522.0,516.0,509.0,503.0,497.0,488.0
91,526.0,519.0,512.0,505.0,494.0,485.0
92,533.0,526.0,519.0,512.0,506.0,497.0
93,538.0,530.0,522.0,515.0,503.0,494.0
94,544.0,537.0,530.0,523.0,516.0,506.0
95,548.0,541.0,533.0,526.0,514.0,504.0
96,556.0,549.0,541.0,534.0,527.0,517.0
97,559.0,552.0,544.0,537.0,525.0,515.0
98,564.0,558.0,551.0,544.0,537.0,527.0
99,571.0,563.0,555.0,547.0,535.0,525.0
100,578.0,571.0,563.0,556.0,549.0,539.0
101,586.0,577.0,569.0,560.0,547.0,537.0
102,592.0,585.0,577.0,570.0,561.0,550.0
103,596.0,589.0,581.0,573.0,560.0,549.0
104,596.0,592.0,586.0,579.0,572.0,562.0
105,597.0,592.0,586.0,580.0,568.0,559.0
106,596.0,592.0,587.0,583.0,578.0,569.0
107,594.0,589.0,585.0,580.0,572.0,564.0
108,589.0,586.0,583.0,580.0,578.0,572.0
109,585.0,582.0,578.0,574.0,569.0,564.0
110,574.0,574.0,573.0,571.0,572.0,569.0
111,564.0,563.0,562.0,561.0,559.0,557.0
112,547.0,550.0,551.0,552.0,557.0,557.0
113,533.0,535.0,536.0,537.0,539.0,542.0
114,515.0,519.0,522.0,525.0,534.0,539.0
115,498.0,501.0,504.0,507.0,513.0,520.0
116,481.0,486.0,489.0,493.0,505.0,514.0
117,471.0,473.0,474.0,476.0,483.0,492.0
118,461.0,463.0,464.0,466.0,477.0,486.0
119,455.0,454.0,454.0,454.0,458.0,467.0
120,451.0,450.0,449.0,448.0,456.0,463.0
121,444.0,442.0,441.0,439.0,441.0,447.0
122,440.0,439.0,437.0,436.0,441.0,446.0
123,437.0,434.0,432.0,429.0,428.0,432.0
124,435.0,433.0,430.0,428.0,432.0,435.0
125,434.0,430.0,426.0,423.0,421.0,422.0
126,433.0,430.0,427.0,424.0,425.0,426.0
127,435.0,430.0,425.0,421.0,417.0,416.0
128,434.0,431.0,427.0,423.0,423.0,422.0
129,440.0,433.0,428.0,423.0,416.0,413.0
130,437.0,434.0,430.0,426.0,424.0,420.0
131,441.0,435.0,430.0,425.0,418.0,414.0
132,441.0,437.0,432.0,428.0,426.0,422.0
133,443.0,438.0,432.0,427.0,420.0,415.0
134,448.0,443.0,437.0,432.0,429.0,424.0
135,449.0,444.0,438.0,432.0,424.0,418.0
136,454.0,449.0,443.0,437.0,432.0,426.0
137,454.0,449.0,443.0,438.0,429.0,422.0
138,457.0,453.0,447.0,443.0,439.0,432.0
139,459.0,453.0,448.0,442.0,434.0,427.0
140,464.0,458.0,453.0,447.0,443.0,437.0
141,466.0,460.0,454.0,448.0,439.0,432.0
142,469.0,464.0,458.0,453.0,449.0,442.0
143,469.0,464.0,458.0,453.0,444.0,437.0
144,472.0,467.0,462.0,457.0,453.0,447.0
145,476.0,469.0,463.0,457.0,448.0,442.0
146,478.0,473.0,468.0,462.0,458.0,451.0
147,481.0,475.0,469.0,463.0,454.0,447.0
148,480.0,477.0,472.0,467.0,465.0,458.0
149,479.0,475.0,470.0,465.0,458.0,452.0
150,480.0,477.0,472.0,468.0,466.0,460.0
151,484.0,478.0,472.0,467.0,459.0,454.0
152,486.0,481.0,476.0,471.0,468.0,463.0
153,486.0,481.0,475.0,470.0,462.0,457.0
154,486.0,482.0,477.0,473.0,470.0,465.0
155,490.0,484.0,478.0,472.0,464.0,459.0
156,492.0,487.0,482.0,477.0,473.0,467.0
157,495.0,489.0,483.0,477.0,468.0,462.0
158,492.0,489.0,485.0,480.0,477.0,471.0
159,495.0,490.0,484.0,479.0,471.0,465.0
160,494.0,490.0,485.0,481.0,477.0,472.0
161,494.0,489.0,484.0,479.0,471.0,466.0
162,495.0,491.0,486.0,482.0,479.0,474.0
163,494.0,490.0,485.0,480.0,473.0,467.0
164,494.0,490.0,486.0,482.0,480.0,475.0
165,494.0,489.0,484.0,479.0,473.0,468.0
166,493.0,489.0,485.0,481.0,479.0,475.0
167,492.0,488.0,483.0,479.0,472.0,468.0
168,494.0,490.0,485.0,481.0,479.0,475.0
169,493.0,489.0,484.0,479.0,472.0,468.0
170,497.0,492.0,487.0,482.0,480.0,475.0
171,496.0,491.0,486.0,481.0,473.0,468.0
172,497.0,493.0,488.0,484.0,483.0,478.0
173,495.0,490.0,486.0,481.0,475.0,470.0
174,493.0,490.0,486.0,482.0,481.0,477.0
175,494.0,489.0,484.0,479.0,473.0,469.0
176,496.0,492.0,487.0,482.0,480.0,476.0
177,493.0,489.0,484.0,480.0,473.0,469.0
178,493.0,490.0,486.0,482.0,480.0,476.0
179,496.0,490.0,485.0,480.0,473.0,468.0
180,496.0,492.0,487.0,483.0,480.0,476.0
181,499.0,494.0,488.0,482.0,474.0,469.0
182,501.0,496.0,491.0,486.0,483.0,478.0
183,498.0,494.0,489.0,484.0,477.0,471.0
184,497.0,494.0,490.0,486.0,483.0,478.0
185,499.0,493.0,488.0,483.0,476.0,471.0
186,498.0,494.0,490.0,486.0,483.0,479.0
187,496.0,492.0,487.0,483.0,476.0,471.0
188,500.0,495.0,490.0,486.0,484.0,479.0
189,502.0,496.0,490.0,485.0,477.0,472.0
190,506.0,501.0,495.0,489.0,486.0,480.0
191,507.0,501.0,495.0,489.0,480.0,475.0
192,505.0,502.0,497.0,493.0,489.0,483.0
193,507.0,501.0,496.0,491.0,483.0,477.0
194,513.0,507.0,501.0,496.0,492.0,486.0
195,521.0,513.0,505.0,498.0,488.0,481.0
196,529.0,522.0,514.0,507.0,501.0,493.0
197,535.0,527.0,519.0,511.0,499.0,490.0
198,533.0,529.0,523.0,517.0,511.0,502.0
199,542.0,534.0,526.0,519.0,508.0,499.0
200,544.0,538.0,532.0,526.0,519.0,510.0
201,535.0,532.0,528.0,523.0,514.0,506.0
202,527.0,526.0,525.0,522.0,521.0,515.0
203,523.0,521.0,518.0,515.0,511.0,506.0
204,527.0,523.0,519.0,516.0,516.0,512.0
205,526.0,521.0,516.0,512.0,506.0,503.0
206,528.0,524.0,519.0,514.0,513.0,509.0
207,525.0,520.0,516.0,511.0,505.0,501.0
208,513.0,513.0,511.0,509.0,508.0,505.0
209,507.0,505.0,503.0,501.0,497.0,495.0
210,494.0,495.0,495.0,495.0,498.0,498.0
211,481.0,482.0,482.0,482.0,483.0,484.0
212,475.0,476.0,476.0,476.0,482.0,484.0
213,479.0,475.0,471.0,469.0,468.0,470.0
214,481.0,477.0,472.0,469.0,471.0,472.0
215,484.0,478.0,472.0,467.0,462.0,461.0
216,483.0,479.0,474.0,470.0,469.0,467.0
217,482.0,478.0,473.0,468.0,462.0,459.0
218,481.0,478.0,474.0,470.0,469.0,465.0
219,481.0,476.0,471.0,467.0,461.0,457.0
220,484.0,479.0,474.0,470.0,469.0,465.0
221,486.0,480.0,474.0,469.0,462.0,458.0
222,481.0,479.0,475.0,471.0,469.0,465.0
223,485.0,479.0,474.0,469.0,462.0,458.0
224,483.0,480.0,475.0,471.0,470.0,465.0
225,488.0,482.0,476.0,470.0,463.0,458.0
226,488.0,484.0,479.0,474.0,471.0,466.0
227,474.0,473.0,471.0,468.0,463.0,459.0
228,446.0,453.0,456.0,458.0,463.0,462.0
229,428.0,433.0,437.0,440.0,444.0,447.0
230,454.0,446.0,441.0,439.0,445.0,447.0
231,508.0,484.0,466.0,453.0,443.0,440.0
232,595.0,557.0,525.0,499.0,473.0,459.0
233,721.0,664.0,615.0,573.0,517.0,485.0
234,832.0,774.0,720.0,669.0,597.0,545.0
235,962.0,894.0,832.0,774.0,679.0,608.0
236,1018.0,970.0,920.0,869.0,777.0,695.0
237,1015.0,992.0,962.0,925.0,842.0,761.0
238,934.0,948.0,949.0,937.0,890.0,824.0
239,772.0,825.0,861.0,882.0,876.0,838.0
240,569.0,650.0,716.0,770.0,823.0,825.0
241,498.0,546.0,597.0,650.0,727.0,764.0
242,499.0,511.0,535.0,571.0,651.0,706.0
243,479.0,485.0,496.0,515.0,574.0,633.0
244,469.0,472.0,476.0,486.0,533.0,585.0
245,463.0,462.0,463.0,465.0,490.0,533.0
246,454.0,455.0,455.0,455.0,474.0,506.0
247,446.0,446.0,445.0,444.0,451.0,475.0
248,444.0,443.0,441.0,440.0,448.0,464.0
249,442.0,439.0,436.0,433.0,433.0,444.0
250,447.0,442.0,438.0,434.0,436.0,443.0
251,451.0,444.0,439.0,434.0,428.0,431.0
252,457.0,451.0,445.0,440.0,437.0,436.0
253,460.0,453.0,447.0,441.0,432.0,429.0
254,463.0,457.0,452.0,447.0,442.0,438.0
255,466.0,460.0,454.0,448.0,438.0,432.0
0,470.0,464.0,459.0,453.0,448.0,441.0
1,477.0,469.0,462.0,456.0,445.0,438.0
2,480.0,475.0,468.0,462.0,457.0,449.0
3,483.0,477.0,470.0,464.0,454.0,446.0
4,486.0,481.0,475.0,470.0,464.0,457.0
5,491.0,484.0,477.0,471.0,461.0,453.0
6,492.0,487.0,482.0,477.0,472.0,464.0
7,500.0,493.0,485.0,479.0,468.0,461.0
8,503.0,498.0,491.0,485.0,480.0,472.0
9,508.0,501.0,494.0,487.0,476.0,468.0
10,515.0,508.0,501.0,495.0,488.0,480.0
11,520.0,512.0,505.0,497.0,486.0,477.0
12,522.0,517.0,510.0,504.0,499.0,490.0
13,528.0,521.0,514.0,506.0,496.0,487.0
14,534.0,528.0,521.0,514.0,507.0,499.0
15,538.0,531.0,524.0,517.0,505.0,496.0
16,547.0,540.0,532.0,525.0,518.0,508.0
17,552.0,544.0,536.0,529.0,516.0,506.0
18,560.0,553.0,545.0,537.0,529.0,519.0
19,563.0,556.0,548.0,541.0,528.0,517.0
20,573.0,565.0,557.0,550.0,541.0,531.0
21,578.0,570.0,562.0,554.0,541.0,530.0
22,584.0,577.0,570.0,563.0,554.0,543.0
23,587.0,580.0,573.0,565.0,552.0,542.0
24,594.0,587.0,580.0,573.0,564.0,553.0
25,598.0,591.0,583.0,576.0,562.0,552.0
26,599.0,594.0,588.0,582.0,575.0,565.0
27,605.0,597.0,590.0,583.0,572.0,562.0
28,602.0,598.0,593.0,588.0,582.0,573.0
29,599.0,595.0,590.0,585.0,576.0,568.0
30,596.0,593.0,590.0,586.0,584.0,577.0
31,590.0,587.0,584.0,580.0,574.0,569.0
32,579.0,579.0,578.0,577.0,578.0,575.0
33,569.0,568.0,567.0,566.0,564.0,563.0
34,555.0,557.0,558.0,558.0,563.0,564.0
35,535.0,538.0,540.0,542.0,545.0,548.0
36,519.0,524.0,526.0,530.0,541.0,546.0
37,507.0,509.0,510.0,513.0,519.0,527.0
38,490.0,494.0,497.0,500.0,512.0,521.0
39,477.0,479.0,481.0,483.0,490.0,499.0
40,465.0,468.0,470.0,472.0,483.0,493.0
41,455.0,456.0,457.0,458.0,464.0,473.0
42,448.0,449.0,449.0,450.0,459.0,468.0
43,443.0,442.0,440.0,439.0,442.0,450.0
44,438.0,437.0,436.0,435.0,441.0,447.0
45,435.0,433.0,430.0,428.0,428.0,432.0
46,435.0,432.0,429.0,427.0,430.0,433.0
47,432.0,429.0,425.0,422.0,419.0,421.0
48,435.0,431.0,427.0,423.0,423.0,423.0
49,438.0,433.0,427.0,422.0,416.0,414.0
50,439.0,435.0,431.0,426.0,424.0,421.0
51,440.0,435.0,430.0,425.0,418.0,414.0
52,443.0,439.0,434.0,429.0,427.0,422.0
53,443.0,439.0,434.0,429.0,421.0,416.0
54,449.0,444.0,438.0,433.0,430.0,425.0
55,452.0,446.0,440.0,434.0,425.0,420.0
56,454.0,449.0,444.0,439.0,435.0,429.0
57,454.0,449.0,444.0,439.0,430.0,424.0
58,457.0,453.0,448.0,443.0,439.0,433.0
59,460.0,454.0,448.0,443.0,434.0,428.0
60,463.0,458.0,453.0,448.0,445.0,439.0
61,464.0,459.0,453.0,448.0,440.0,434.0
62,464.0,460.0,456.0,451.0,448.0,443.0
63,470.0,464.0,457.0,451.0,443.0,437.0
64,474.0,468.0,462.0,457.0,453.0,447.0
65,474.0,469.0,463.0,457.0,448.0,442.0
66,474.0,471.0,466.0,461.0,457.0,451.0
67,477.0,471.0,466.0,460.0,452.0,446.0
68,476.0,472.0,468.0,463.0,460.0,455.0
69,479.0,474.0,468.0,463.0,454.0,449.0
70,480.0,476.0,471.0,466.0,463.0,458.0
71,485.0,478.0,472.0,466.0,458.0,452.0
72,483.0,480.0,475.0,470.0,465.0,459.0
73,486.0,480.0,474.0,469.0,460.0,454.0
74,485.0,481.0,476.0,472.0,469.0,463.0
75,485.0,480.0,475.0,470.0,463.0,457.0
76,486.0,482.0,477.0,473.0,471.0,465.0
77,489.0,484.0,478.0,472.0,464.0,459.0
78,494.0,488.0,482.0,477.0,473.0,468.0
79,493.0,488.0,482.0,477.0,468.0,462.0
80,493.0,489.0,485.0,480.0,477.0,471.0
81,492.0,487.0,483.0,478.0,470.0,465.0
82,494.0,490.0,485.0,481.0,478.0,473.0
83,492.0,488.0,483.0,478.0,471.0,466.0
84,492.0,489.0,484.0,481.0,479.0,475.0
85,491.0,486.0,482.0,478.0,471.0,467.0
86,492.0,488.0,484.0,480.0,478.0,474.0
87,493.0,488.0,483.0,478.0,471.0,467.0
88,493.0,489.0,484.0,480.0,478.0,474.0
89,495.0,490.0,484.0,479.0,471.0,467.0
90,496.0,492.0,487.0,482.0,479.0,475.0
91,496.0,491.0,486.0,481.0,473.0,468.0
92,497.0,493.0,488.0,484.0,481.0,476.0
93,497.0,492.0,487.0,482.0,474.0,469.0
94,499.0,495.0,490.0,485.0,482.0,477.0
95,497.0,492.0,488.0,483.0,475.0,471.0
96,496.0,493.0,488.0,485.0,482.0,477.0
97,498.0,493.0,488.0,483.0,475.0,470.0
98,500.0,495.0,490.0,486.0,483.0,478.0
99,502.0,496.0,490.0,485.0,477.0,472.0
100,500.0,497.0,492.0,488.0,485.0,480.0
101,502.0,497.0,491.0,486.0,478.0,473.0
102,502.0,498.0,493.0,489.0,486.0,481.0
103,501.0,496.0,492.0,487.0,479.0,474.0
104,501.0,497.0,493.0,489.0,487.0,482.0
105,502.0,497.0,492.0,487.0,479.0,475.0
106,501.0,498.0,493.0,489.0,487.0,483.0
107,501.0,496.0,491.0,487.0,480.0,475.0
108,498.0,496.0,492.0,488.0,488.0,484.0
109,502.0,496.0,491.0,486.0,480.0,476.0
110,506.0,501.0,495.0,490.0,487.0,483.0
111,505.0,500.0,495.0,489.0,481.0,477.0
112,502.0,499.0,495.0,491.0,489.0,484.0
113,502.0,497.0,493.0,488.0,481.0,477.0
114,503.0,499.0,494.0,490.0,488.0,484.0
115,504.0,498.0,493.0,488.0,481.0,477.0
116,502.0,499.0,495.0,491.0,488.0,484.0
117,503.0,498.0,493.0,488.0,481.0,477.0
118,505.0,501.0,496.0,491.0,489.0,485.0
119,502.0,498.0,494.0,489.0,481.0,477.0
120,506.0,502.0,496.0,492.0,488.0,483.0
121,511.0,504.0,498.0,492.0,483.0,478.0
122,514.0,509.0,503.0,497.0,493.0,487.0
123,514.0,508.0,502.0,497.0,487.0,481.0
124,518.0,512.0,506.0,501.0,497.0,491.0
125,521.0,514.0,508.0,502.0,492.0,486.0
126,529.0,522.0,515.0,509.0,503.0,496.0
127,535.0,527.0,519.0,512.0,500.0,492.0
128,547.0,538.0,530.0,522.0,514.0,505.0
129,549.0,541.0,533.0,525.0,512.0,502.0
130,550.0,545.0,539.0,532.0,525.0,515.0
131,549.0,544.0,538.0,532.0,521.0,512.0
132,541.0,540.0,537.0,534.0,531.0,524.0
133,534.0,532.0,530.0,527.0,522.0,516.0
134,532.0,530.0,527.0,525.0,526.0,522.0
135,536.0,530.0,525.0,521.0,516.0,513.0
136,533.0,530.0,526.0,522.0,522.0,519.0
137,533.0,528.0,523.0,519.0,513.0,510.0
138,524.0,523.0,520.0,518.0,518.0,515.0
139,511.0,511.0,510.0,508.0,505.0,504.0
140,509.0,507.0,505.0,504.0,507.0,507.0
141,494.0,494.0,494.0,493.0,493.0,494.0
142,484.0,485.0,485.0,486.0,492.0,495.0
143,481.0,479.0,477.0,476.0,477.0,480.0
144,479.0,477.0,474.0,473.0,476.0,479.0
145,483.0,477.0,472.0,469.0,465.0,467.0
146,485.0,481.0,476.0,471.0,471.0,471.0
147,486.0,481.0,475.0,470.0,463.0,462.0
148,483.0,481.0,476.0,472.0,470.0,468.0
149,485.0,480.0,475.0,470.0,463.0,460.0
150,487.0,482.0,477.0,473.0,471.0,467.0
151,487.0,482.0,476.0,472.0,464.0,460.0
152,487.0,483.0,478.0,474.0,472.0,468.0
153,489.0,483.0,478.0,473.0,465.0,461.0
154,487.0,483.0,479.0,475.0,473.0,468.0
155,491.0,485.0,479.0,474.0,466.0,462.0
156,494.0,489.0,483.0,479.0,476.0,472.0
157,491.0,487.0,482.0,477.0,469.0,465.0
158,484.0,483.0,480.0,477.0,476.0,472.0
159,457.0,461.0,463.0,464.0,462.0,461.0
160,433.0,440.0,445.0,450.0,458.0,461.0
161,442.0,439.0,437.0,438.0,441.0,445.0
162,496.0,476.0,461.0,452.0,449.0,450.0
163,565.0,533.0,505.0,484.0,460.0,451.0
164,684.0,633.0,589.0,553.0,510.0,484.0
165,807.0,746.0,691.0,642.0,570.0,524.0
166,926.0,863.0,805.0,749.0,663.0,598.0
167,1017.0,958.0,902.0,846.0,748.0,668.0
168,1018.0,992.0,957.0,916.0,833.0,751.0
169,959.0,962.0,955.0,936.0,875.0,804.0
170,822.0,864.0,891.0,903.0,890.0,843.0
171,620.0,695.0,755.0,800.0,835.0,826.0
172,500.0,563.0,623.0,679.0,758.0,788.0
173,506.0,521.0,549.0,588.0,664.0,716.0
174,487.0,495.0,508.0,531.0,599.0,657.0
175,477.0,479.0,483.0,493.0,538.0,592.0
176,469.0,470.0,471.0,476.0,508.0,553.0
177,457.0,458.0,458.0,459.0,475.0,509.0
178,447.0,449.0,449.0,450.0,464.0,490.0
179,448.0,445.0,442.0,441.0,445.0,463.0
180,444.0,443.0,440.0,439.0,445.0,458.0
181,444.0,440.0,437.0,434.0,432.0,441.0
182,445.0,442.0,438.0,435.0,436.0,441.0
183,450.0,443.0,438.0,433.0,428.0,430.0
184,454.0,449.0,443.0,438.0,436.0,435.0
185,457.0,451.0,445.0,439.0,431.0,428.0
186,463.0,457.0,451.0,446.0,441.0,437.0
187,466.0,459.0,453.0,447.0,437.0,432.0
188,470.0,465.0,459.0,453.0,448.0,442.0
189,474.0,467.0,461.0,455.0,444.0,438.0
190,478.0,473.0,467.0,461.0,456.0,449.0
191,485.0,478.0,470.0,464.0,453.0,446.0
192,488.0,483.0,476.0,470.0,463.0,456.0
193,493.0,486.0,479.0,472.0,461.0,453.0
194,497.0,491.0,485.0,479.0,473.0,464.0
195,502.0,495.0,488.0,481.0,470.0,462.0
196,506.0,501.0,494.0,488.0,482.0,474.0
197,514.0,506.0,498.0,491.0,479.0,471.0
198,519.0,513.0,505.0,499.0,492.0,483.0
199,524.0,516.0,509.0,501.0,489.0,480.0
200,528.0,522.0,515.0,509.0,502.0,493.0
201,532.0,525.0,518.0,511.0,499.0,490.0
202,538.0,532.0,525.0,518.0,512.0,502.0
203,543.0,535.0,528.0,521.0,509.0,500.0
204,548.0,542.0,535.0,528.0,522.0,513.0
205,557.0,548.0,540.0,532.0,520.0,511.0
206,562.0,555.0,548.0,540.0,533.0,524.0
207,571.0,562.0,553.0,545.0,532.0,522.0
208,574.0,568.0,560.0,553.0,545.0,535.0
209,584.0,575.0,566.0,558.0,544.0,533.0
210,585.0,579.0,573.0,566.0,557.0,547.0
211,592.0,584.0,576.0,569.0,556.0,545.0
212,594.0,588.0,582.0,575.0,568.0,558.0
213,596.0,590.0,583.0,576.0,565.0,555.0
214,599.0,593.0,587.0,582.0,576.0,567.0
215,598.0,592.0,587.0,581.0,571.0,563.0
216,595.0,592.0,588.0,583.0,578.0,571.0
217,594.0,590.0,585.0,580.0,572.0,565.0
218,590.0,588.0,584.0,581.0,579.0,573.0
219,586.0,582.0,579.0,575.0,569.0,565.0
220,572.0,573.0,572.0,571.0,572.0,570.0
221,560.0,561.0,560.0,560.0,559.0,558.0
222,548.0,550.0,550.0,551.0,557.0,559.0
223,531.0,533.0,535.0,536.0,539.0,542.0
224,511.0,517.0,520.0,523.0,533.0,539.0
225,499.0,502.0,503.0,506.0,512.0,519.0
226,485.0,488.0,491.0,494.0,505.0,514.0
227,473.0,475.0,476.0,478.0,484.0,493.0
228,464.0,465.0,466.0,468.0,479.0,489.0
229,457.0,456.0,456.0,456.0,460.0,469.0
230,452.0,451.0,450.0,450.0,458.0,465.0
231,444.0,443.0,442.0,441.0,442.0,449.0
232,437.0,437.0,436.0,436.0,442.0,447.0
233,438.0,434.0,431.0,429.0,428.0,432.0
234,433.0,432.0,429.0,427.0,430.0,433.0
235,436.0,431.0,427.0,423.0,420.0,422.0
236,434.0,431.0,428.0,425.0,425.0,426.0
237,436.0,431.0,426.0,422.0,417.0,416.0
238,436.0,433.0,428.0,425.0,424.0,422.0
239,439.0,434.0,428.0,423.0,417.0,414.0
240,443.0,438.0,432.0,428.0,424.0,420.0
241,445.0,439.0,433.0,428.0,419.0,415.0
242,449.0,444.0,438.0,433.0,429.0,424.0
243,451.0,445.0,439.0,433.0,424.0,419.0
244,453.0,448.0,443.0,438.0,434.0,428.0
245,457.0,451.0,445.0,439.0,430.0,424.0
246,455.0,452.0,447.0,443.0,439.0,433.0
247,457.0,452.0,447.0,442.0,434.0,428.0
248,460.0,456.0,450.0,446.0,443.0,437.0
249,461.0,456.0,450.0,445.0,437.0,431.0
250,463.0,459.0,454.0,449.0,446.0,440.0
251,464.0,459.0,454.0,448.0,440.0,435.0
252,466.0,461.0,457.0,452.0,450.0,445.0
253,471.0,464.0,458.0,452.0,444.0,439.0
254,472.0,468.0,462.0,457.0,453.0,448.0
255,474.0,468.0,463.0,457.0,448.0,442.0
0,477.0,472.0,467.0,462.0,458.0,452.0
1,477.0,472.0,467.0,461.0,453.0,447.0
2,477.0,473.0,469.0,464.0,461.0,455.0
3,483.0,476.0,470.0,464.0,456.0,450.0
4,485.0,480.0,474.0,469.0,465.0,459.0
5,486.0,480.0,475.0,469.0,460.0,454.0
6,486.0,483.0,478.0,473.0,469.0,463.0
7,488.0,483.0,477.0,472.0,463.0,458.0
8,488.0,484.0,479.0,475.0,470.0,465.0
9,487.0,482.0,478.0,473.0,465.0,459.0
10,490.0,485.0,480.0,476.0,473.0,468.0
11,487.0,482.0,478.0,473.0,466.0,461.0
12,492.0,487.0,481.0,477.0,474.0,469.0
13,494.0,488.0,482.0,476.0,468.0,463.0
14,496.0,491.0,485.0,480.0,477.0,471.0
15,495.0,490.0,485.0,479.0,471.0,466.0
16,495.0,491.0,487.0,482.0,479.0,474.0
17,494.0,490.0,485.0,480.0,472.0,467.0
18,495.0,491.0,487.0,482.0,480.0,475.0
19,498.0,492.0,486.0,481.0,473.0,469.0
20,497.0,493.0,489.0,484.0,483.0,478.0
21,498.0,493.0,488.0,482.0,476.0,471.0
22,496.0,493.0,489.0,485.0,483.0,478.0
23,498.0,493.0,487.0,483.0,475.0,471.0
24,500.0,496.0,491.0,486.0,483.0,479.0
25,500.0,495.0,490.0,485.0,477.0,472.0
26,499.0,495.0,491.0,487.0,485.0,480.0
27,499.0,495.0,490.0,485.0,477.0,473.0
28,501.0,497.0,492.0,487.0,485.0,480.0
29,500.0,495.0,490.0,485.0,478.0,474.0
30,501.0,496.0,492.0,488.0,486.0,481.0
31,499.0,495.0,490.0,485.0,478.0,474.0
32,501.0,497.0,492.0,487.0,484.0,480.0
33,502.0,496.0,491.0,486.0,478.0,473.0
34,499.0,496.0,492.0,488.0,485.0,481.0
35,499.0,495.0,490.0,485.0,478.0,474.0
36,498.0,495.0,491.0,487.0,485.0,481.0
37,499.0,494.0,489.0,484.0,478.0,474.0
38,497.0,494.0,490.0,486.0,484.0,480.0
39,499.0,494.0,489.0,484.0,477.0,473.0
40,499.0,496.0,491.0,487.0,485.0,480.0
41,503.0,497.0,491.0,485.0,478.0,473.0
42,500.0,497.0,492.0,488.0,485.0,481.0
43,501.0,496.0,491.0,486.0,478.0,474.0
44,502.0,498.0,493.0,489.0,488.0,483.0
45,501.0,497.0,492.0,487.0,480.0,476.0
46,504.0,500.0,495.0,490.0,488.0,484.0
47,503.0,498.0,493.0,488.0,481.0,476.0
48,502.0,499.0,495.0,490.0,488.0,484.0
49,501.0,497.0,492.0,487.0,481.0,477.0
50,504.0,500.0,495.0,491.0,489.0,484.0
51,504.0,499.0,494.0,489.0,482.0,477.0
52,506.0,502.0,497.0,492.0,489.0,485.0
53,509.0,503.0,497.0,491.0,483.0,478.0
54,508.0,504.0,499.0,494.0,491.0,486.0
55,510.0,505.0,499.0,493.0,485.0,480.0
56,511.0,506.0,501.0,496.0,492.0,487.0
57,515.0,508.0,502.0,496.0,487.0,481.0
58,515.0,510.0,505.0,500.0,496.0,490.0
59,518.0,512.0,506.0,500.0,491.0,485.0
60,520.0,516.0,510.0,505.0,501.0,494.0
61,526.0,519.0,512.0,505.0,496.0,489.0
62,532.0,526.0,519.0,512.0,507.0,499.0
63,542.0,533.0,524.0,516.0,504.0,496.0
64,544.0,538.0,531.0,524.0,517.0,508.0
65,549.0,542.0,534.0,527.0,515.0,505.0
66,551.0,546.0,540.0,533.0,527.0,518.0
67,545.0,541.0,537.0,531.0,522.0,514.0
68,530.0,531.0,531.0,529.0,529.0,523.0
69,530.0,526.0,524.0,522.0,518.0,514.0
70,531.0,527.0,524.0,521.0,522.0,520.0
71,530.0,526.0,521.0,517.0,512.0,510.0
72,528.0,525.0,521.0,518.0,517.0,515.0
73,523.0,520.0,516.0,512.0,507.0,505.0
74,509.0,511.0,510.0,509.0,510.0,509.0
75,505.0,503.0,501.0,500.0,498.0,498.0
76,487.0,490.0,491.0,492.0,497.0,499.0
77,479.0,479.0,479.0,479.0,481.0,484.0
78,480.0,478.0,476.0,475.0,480.0,484.0
79,482.0,477.0,473.0,469.0,468.0,470.0
80,483.0,479.0,475.0,471.0,471.0,472.0
81,488.0,481.0,475.0,470.0,463.0,462.0
82,487.0,483.0,478.0,473.0,471.0,468.0
83,489.0,483.0,478.0,472.0,464.0,461.0
84,483.0,481.0,478.0,474.0,472.0,468.0
85,486.0,481.0,476.0,471.0,465.0,461.0
86,488.0,484.0,479.0,475.0,473.0,468.0
87,488.0,483.0,478.0,473.0,466.0,461.0
88,488.0,484.0,479.0,475.0,473.0,469.0
89,487.0,482.0,478.0,473.0,466.0,462.0
90,489.0,485.0,480.0,476.0,474.0,469.0
91,490.0,485.0,479.0,474.0,467.0,462.0
92,489.0,486.0,481.0,477.0,476.0,471.0
93,485.0,482.0,478.0,474.0,468.0,464.0
94,465.0,468.0,469.0,468.0,471.0,469.0
95,434.0,442.0,447.0,450.0,453.0,455.0
96,433.0,434.0,436.0,439.0,449.0,453.0
97,479.0,461.0,449.0,442.0,439.0,441.0
98,538.0,511.0,488.0,471.0,458.0,452.0
99,653.0,603.0,562.0,528.0,487.0,466.0
100,776.0,717.0,664.0,618.0,556.0,516.0
101,888.0,828.0,770.0,716.0,630.0,569.0
102,1003.0,941.0,881.0,824.0,730.0,653.0
103,1017.0,984.0,944.0,898.0,807.0,724.0
104,968.0,968.0,955.0,933.0,870.0,795.0
105,853.0,886.0,904.0,909.0,880.0,827.0
106,666.0,735.0,788.0,826.0,854.0,835.0
107,505.0,578.0,641.0,698.0,767.0,788.0
108,498.0,523.0,558.0,602.0,686.0,734.0
109,492.0,498.0,512.0,537.0,603.0,660.0
110,478.0,482.0,488.0,500.0,553.0,608.0
111,472.0,472.0,473.0,476.0,506.0,552.0
112,463.0,464.0,464.0,465.0,487.0,523.0
113,452.0,453.0,453.0,452.0,462.0,488.0
114,448.0,448.0,447.0,446.0,456.0,475.0
115,447.0,444.0,442.0,439.0,440.0,453.0
116,447.0,445.0,442.0,439.0,444.0,452.0
117,449.0,445.0,440.0,436.0,433.0,437.0
118,455.0,450.0,445.0,440.0,439.0,441.0
119,458.0,452.0,446.0,440.0,433.0,432.0
120,460.0,456.0,450.0,445.0,442.0,439.0
121,463.0,458.0,452.0,446.0,437.0,433.0
122,469.0,464.0,458.0,452.0,448.0,442.0
123,472.0,466.0,460.0,453.0,444.0,438.0
124,479.0,473.0,466.0,460.0,455.0,448.0
125,481.0,475.0,469.0,462.0,452.0,445.0
126,487.0,481.0,475.0,469.0,463.0,456.0
127,493.0,485.0,478.0,471.0,461.0,453.0
128,497.0,491.0,484.0,478.0,471.0,463.0
129,500.0,494.0,487.0,480.0,469.0,460.0
130,503.0,498.0,492.0,486.0,480.0,472.0
131,507.0,501.0,494.0,487.0,477.0,469.0
132,515.0,507.0,501.0,494.0,488.0,480.0
133,518.0,510.0,503.0,496.0,485.0,477.0
134,520.0,515.0,508.0,502.0,497.0,488.0
135,527.0,519.0,512.0,505.0,494.0,485.0
136,535.0,528.0,520.0,513.0,506.0,497.0
137,540.0,532.0,524.0,517.0,504.0,495.0
138,540.0,535.0,529.0,523.0,516.0,507.0
139,547.0,540.0,532.0,525.0,514.0,504.0
140,550.0,545.0,538.0,532.0,527.0,518.0
141,561.0,552.0,543.0,536.0,524.0,515.0
142,569.0,561.0,553.0,545.0,537.0,528.0
143,572.0,564.0,557.0,549.0,536.0,526.0
144,580.0,573.0,565.0,558.0,550.0,539.0
145,584.0,576.0,569.0,561.0,548.0,538.0
146,587.0,582.0,575.0,568.0,561.0,551.0
147,592.0,585.0,578.0,570.0,558.0,548.0
148,595.0,589.0,583.0,577.0,570.0,560.0
149,598.0,591.0,585.0,578.0,567.0,557.0
150,599.0,594.0,588.0,583.0,578.0,569.0
151,597.0,592.0,587.0,581.0,572.0,564.0
152,593.0,590.0,586.0,582.0,578.0,572.0
153,589.0,585.0,581.0,578.0,570.0,565.0
154,583.0,581.0,579.0,576.0,576.0,571.0
155,572.0,571.0,569.0,568.0,564.0,561.0
156,557.0,560.0,560.0,560.0,565.0,564.0
157,546.0,546.0,546.0,547.0,548.0,550.0
158,530.0,533.0,535.0,537.0,545.0,548.0
159,514.0,517.0,519.0,520.0,525.0,530.0
160,499.0,503.0,505.0,508.0,519.0,526.0
161,488.0,489.0,490.0,492.0,498.0,506.0
162,476.0,478.0,479.0,482.0,492.0,500.0
163,464.0,466.0,466.0,467.0,472.0,480.0
164,457.0,458.0,458.0,459.0,469.0,478.0
165,448.0,448.0,447.0,447.0,451.0,459.0
166,439.0,440.0,440.0,440.0,449.0,456.0
167,436.0,434.0,432.0,431.0,433.0,439.0
168,434.0,432.0,430.0,428.0,433.0,438.0
169,435.0,431.0,427.0,423.0,422.0,425.0
170,433.0,431.0,427.0,424.0,426.0,427.0
171,435.0,431.0,426.0,422.0,417.0,417.0
172,439.0,434.0,429.0,425.0,424.0,423.0
173,440.0,434.0,429.0,424.0,417.0,415.0
174,440.0,436.0,432.0,427.0,425.0,422.0
175,443.0,437.0,432.0,427.0,420.0,415.0
176,445.0,441.0,436.0,431.0,427.0,422.0
177,447.0,441.0,436.0,430.0,422.0,417.0
178,446.0,443.0,438.0,434.0,431.0,426.0
179,447.0,442.0,437.0,432.0,425.0,420.0
180,451.0,447.0,441.0,437.0,434.0,429.0
181,457.0,450.0,443.0,437.0,429.0,423.0
182,460.0,455.0,449.0,443.0,439.0,433.0
183,464.0,457.0,451.0,445.0,435.0,428.0
184,464.0,460.0,455.0,449.0,445.0,439.0
185,465.0,460.0,454.0,449.0,441.0,434.0
186,464.0,460.0,456.0,452.0,449.0,443.0
187,468.0,462.0,456.0,451.0,443.0,437.0
188,469.0,465.0,460.0,455.0,453.0,447.0
189,472.0,466.0,460.0,455.0,447.0,442.0
190,476.0,471.0,465.0,460.0,456.0,451.0
191,479.0,472.0,466.0,460.0,451.0,446.0
192,478.0,474.0,469.0,464.0,461.0,455.0
193,484.0,478.0,471.0,465.0,456.0,450.0
194,482.0,478.0,474.0,469.0,465.0,459.0
195,482.0,477.0,472.0,467.0,459.0,454.0
196,483.0,479.0,474.0,470.0,467.0,462.0
197,484.0,479.0,474.0,469.0,461.0,456.0
198,485.0,481.0,476.0,472.0,469.0,464.0
199,489.0,483.0,477.0,471.0,463.0,458.0
200,489.0,485.0,480.0,475.0,471.0,465.0
201,491.0,485.0,479.0,474.0,465.0,459.0
202,490.0,486.0,482.0,477.0,474.0,468.0
203,494.0,488.0,482.0,476.0,468.0,462.0
204,494.0,490.0,485.0,480.0,477.0,471.0
205,497.0,491.0,485.0,479.0,471.0,466.0
206,495.0,491.0,487.0,482.0,479.0,474.0
207,497.0,492.0,486.0,481.0,473.0,468.0
208,497.0,493.0,488.0,484.0,481.0,476.0
209,498.0,492.0,487.0,482.0,475.0,470.0
210,494.0,491.0,487.0,483.0,482.0,477.0
211,496.0,491.0,486.0,481.0,474.0,470.0
212,498.0,494.0,489.0,484.0,483.0,479.0
213,498.0,493.0,488.0,483.0,476.0,471.0
214,500.0,496.0,491.0,486.0,484.0,479.0
215,502.0,497.0,491.0,485.0,478.0,473.0
216,502.0,498.0,493.0,489.0,486.0,481.0
217,503.0,498.0,492.0,487.0,479.0,474.0
218,498.0,496.0,492.0,489.0,487.0,482.0
219,500.0,495.0,490.0,486.0,479.0,475.0
220,499.0,496.0,492.0,488.0,486.0,482.0
221,500.0,495.0,490.0,486.0,479.0,475.0
222,499.0,496.0,492.0,488.0,486.0,482.0
223,503.0,497.0,491.0,486.0,479.0,475.0
224,503.0,499.0,494.0,489.0,485.0,481.0
225,503.0,498.0,493.0,487.0,479.0,475.0
226,500.0,497.0,493.0,489.0,487.0,482.0
227,503.0,498.0,492.0,487.0,480.0,475.0
228,504.0,500.0,495.0,490.0,488.0,483.0
229,503.0,499.0,493.0,488.0,481.0,476.0
230,503.0,500.0,495.0,491.0,489.0,484.0
231,506.0,500.0,494.0,489.0,482.0,477.0
232,502.0,499.0,495.0,491.0,489.0,485.0
233,502.0,497.0,492.0,488.0,481.0,477.0
234,499.0,497.0,493.0,489.0,488.0,484.0
235,500.0,496.0,491.0,486.0,480.0,476.0
236,501.0,497.0,493.0,489.0,488.0,485.0
237,504.0,498.0,492.0,487.0,481.0,477.0
238,505.0,501.0,495.0,491.0,488.0,484.0
239,509.0,502.0,496.0,490.0,482.0,478.0
240,507.0,503.0,498.0,494.0,491.0,486.0
241,511.0,505.0,499.0,493.0,485.0,479.0
242,512.0,507.0,502.0,497.0,494.0,488.0
243,510.0,505.0,500.0,495.0,487.0,482.0
244,505.0,503.0,500.0,496.0,494.0,490.0
245,509.0,504.0,499.0,494.0,487.0,483.0
246,510.0,506.0,501.0,497.0,495.0,490.0
247,510.0,505.0,500.0,495.0,487.0,483.0
248,509.0,506.0,501.0,497.0,493.0,489.0
249,511.0,505.0,500.0,495.0,487.0,482.0
250,512.0,507.0,502.0,498.0,495.0,490.0
251,510.0,505.0,500.0,496.0,488.0,483.0
252,517.0,511.0,505.0,500.0,497.0,492.0
253,522.0,515.0,507.0,501.0,492.0,486.0
254,527.0,521.0,514.0,508.0,502.0,496.0
255,536.0,527.0,519.0,511.0,500.0,492.0
0,546.0,537.0,529.0,521.0,513.0,504.0
1,551.0,542.0,533.0,525.0,512.0,502.0
2,558.0,550.0,542.0,535.0,526.0,516.0
3,557.0,551.0,544.0,537.0,524.0,514.0
4,551.0,549.0,545.0,541.0,536.0,527.0
5,542.0,540.0,538.0,535.0,528.0,521.0
6,533.0,533.0,532.0,531.0,532.0,528.0
7,535.0,531.0,527.0,524.0,521.0,518.0
8,535.0,531.0,527.0,524.0,525.0,523.0
9,531.0,527.0,523.0,519.0,515.0,513.0
10,525.0,524.0,521.0,518.0,519.0,517.0
11,522.0,519.0,516.0,512.0,508.0,507.0
12,516.0,514.0,512.0,510.0,511.0,510.0
13,501.0,502.0,501.0,500.0,498.0,498.0
14,490.0,492.0,492.0,493.0,498.0,500.0
15,491.0,488.0,486.0,485.0,484.0,486.0
16,490.0,487.0,484.0,482.0,484.0,486.0
17,491.0,487.0,482.0,478.0,474.0,474.0
18,498.0,493.0,487.0,482.0,481.0,479.0
19,494.0,490.0,485.0,480.0,473.0,471.0
20,496.0,492.0,487.0,483.0,481.0,478.0
21,494.0,490.0,485.0,480.0,474.0,470.0
22,494.0,490.0,486.0,482.0,480.0,477.0
23,490.0,487.0,483.0,479.0,473.0,469.0
24,494.0,490.0,485.0,481.0,480.0,476.0
25,492.0,488.0,483.0,479.0,472.0,468.0
26,492.0,488.0,484.0,480.0,479.0,475.0
27,496.0,490.0,484.0,479.0,472.0,468.0
28,493.0,490.0,486.0,482.0,481.0,477.0
29,493.0,489.0,484.0,479.0,473.0,469.0
30,483.0,482.0,480.0,478.0,478.0,475.0
31,451.0,458.0,461.0,463.0,463.0,463.0
32,431.0,438.0,443.0,448.0,458.0,461.0
33,452.0,445.0,440.0,439.0,442.0,446.0
34,510.0,487.0,469.0,458.0,453.0,452.0
35,570.0,540.0,513.0,491.0,465.0,455.0
36,707.0,651.0,604.0,565.0,519.0,491.0
37,832.0,767.0,710.0,658.0,582.0,533.0
38,950.0,885.0,826.0,768.0,679.0,610.0
39,1017.0,965.0,913.0,860.0,763.0,682.0
40,990.0,975.0,951.0,917.0,840.0,760.0
41,893.0,914.0,921.0,915.0,868.0,804.0
42,767.0,813.0,846.0,867.0,868.0,832.0
43,559.0,638.0,701.0,752.0,801.0,803.0
44,489.0,537.0,587.0,640.0,721.0,758.0
45,496.0,506.0,527.0,560.0,632.0,686.0
46,500.0,499.0,504.0,519.0,577.0,632.0
47,478.0,481.0,483.0,489.0,525.0,573.0
48,471.0,473.0,474.0,476.0,501.0,540.0
49,469.0,467.0,465.0,464.0,475.0,503.0
50,465.0,464.0,462.0,460.0,469.0,489.0
51,458.0,457.0,454.0,452.0,453.0,467.0
52,456.0,455.0,452.0,451.0,455.0,464.0
53,458.0,454.0,449.0,446.0,444.0,449.0
54,456.0,454.0,450.0,447.0,448.0,451.0
55,460.0,454.0,449.0,445.0,440.0,440.0
56,466.0,461.0,454.0,450.0,448.0,446.0
57,467.0,461.0,455.0,450.0,442.0,439.0
58,477.0,470.0,463.0,457.0,453.0,448.0
59,482.0,474.0,467.0,460.0,450.0,444.0
60,483.0,478.0,472.0,466.0,461.0,454.0
61,488.0,481.0,474.0,468.0,458.0,451.0
62,490.0,485.0,479.0,474.0,469.0,461.0
63,492.0,486.0,480.0,474.0,465.0,457.0
64,497.0,492.0,485.0,480.0,474.0,467.0
65,504.0,496.0,489.0,482.0,471.0,463.0
66,505.0,500.0,494.0,488.0,482.0,474.0
67,508.0,502.0,495.0,489.0,479.0,471.0
68,508.0,504.0,499.0,494.0,489.0,482.0
69,514.0,507.0,500.0,494.0,485.0,478.0
70,518.0,512.0,505.0,500.0,495.0,488.0
71,530.0,520.0,511.0,504.0,492.0,484.0
72,535.0,528.0,520.0,513.0,505.0,496.0
73,539.0,531.0,524.0,516.0,503.0,494.0
74,544.0,538.0,531.0,524.0,517.0,507.0
75,554.0,545.0,536.0,528.0,515.0,505.0
76,556.0,550.0,543.0,536.0,529.0,520.0
77,561.0,554.0,546.0,539.0,527.0,517.0
78,568.0,561.0,553.0,547.0,540.0,530.0
79,573.0,565.0,557.0,550.0,538.0,528.0
80,578.0,572.0,564.0,558.0,550.0,540.0
81,583.0,576.0,568.0,560.0,548.0,538.0
82,589.0,583.0,575.0,569.0,561.0,551.0
83,594.0,586.0,579.0,572.0,559.0,549.0
84,599.0,592.0,585.0,579.0,571.0,562.0
85,604.0,596.0,588.0,581.0,569.0,559.0
86,600.0,596.0,591.0,586.0,580.0,571.0
87,599.0,594.0,589.0,584.0,574.0,566.0
88,597.0,593.0,589.0,585.0,581.0,574.0
89,598.0,592.0,587.0,583.0,574.0,568.0
90,595.0,592.0,588.0,584.0,582.0,576.0
91,584.0,582.0,580.0,577.0,572.0,567.0
92,571.0,572.0,572.0,572.0,574.0,572.0
93,566.0,564.0,563.0,562.0,560.0,560.0
94,548.0,551.0,552.0,553.0,559.0,561.0
95,533.0,535.0,536.0,538.0,541.0,544.0
96,524.0,525.0,526.0,528.0,537.0,542.0
97,501.0,505.0,508.0,510.0,516.0,523.0
98,487.0,491.0,494.0,497.0,509.0,517.0
99,482.0,481.0,481.0,483.0,489.0,497.0
100,468.0,470.0,471.0,473.0,484.0,493.0
101,460.0,460.0,460.0,460.0,465.0,473.0
102,452.0,452.0,452.0,453.0,461.0,469.0
103,447.0,445.0,443.0,443.0,445.0,452.0
104,444.0,442.0,440.0,439.0,445.0,451.0
105,441.0,438.0,435.0,433.0,432.0,436.0
106,439.0,437.0,434.0,432.0,434.0,437.0
107,439.0,435.0,431.0,427.0,424.0,425.0
108,436.0,434.0,431.0,428.0,429.0,429.0
109,442.0,436.0,431.0,426.0,421.0,420.0
110,445.0,440.0,435.0,430.0,429.0,426.0
111,441.0,437.0,433.0,428.0,422.0,419.0
112,446.0,441.0,436.0,432.0,428.0,425.0
113,447.0,441.0,436.0,431.0,423.0,419.0
114,444.0,441.0,437.0,433.0,431.0,427.0
115,448.0,442.0,437.0,432.0,425.0,420.0
116,455.0,449.0,443.0,438.0,434.0,429.0
117,454.0,449.0,443.0,438.0,429.0,424.0
118,453.0,450.0,446.0,442.0,438.0,433.0
119,458.0,452.0,446.0,441.0,433.0,428.0
120,466.0,459.0,452.0,447.0,443.0,437.0
121,471.0,464.0,456.0,449.0,439.0,433.0
122,476.0,470.0,463.0,457.0,451.0,443.0
123,477.0,471.0,464.0,458.0,448.0,440.0
124,477.0,473.0,468.0,463.0,460.0,452.0
125,479.0,473.0,468.0,462.0,454.0,447.0
126,482.0,477.0,471.0,467.0,463.0,457.0
127,488.0,481.0,474.0,468.0,459.0,452.0
128,489.0,484.0,478.0,473.0,469.0,462.0
129,485.0,481.0,476.0,471.0,463.0,457.0
130,485.0,482.0,478.0,474.0,471.0,465.0
131,492.0,485.0,479.0,473.0,465.0,459.0
132,491.0,486.0,481.0,477.0,474.0,468.0
133,493.0,487.0,481.0,476.0,468.0,462.0
134,495.0,490.0,485.0,480.0,477.0,471.0
135,497.0,490.0,485.0,479.0,471.0,465.0
136,494.0,490.0,486.0,482.0,478.0,472.0
137,497.0,491.0,485.0,480.0,472.0,466.0
138,494.0,491.0,487.0,483.0,480.0,475.0
139,497.0,491.0,486.0,481.0,473.0,468.0
140,500.0,495.0,489.0,485.0,482.0,477.0
141,504.0,497.0,491.0,485.0,476.0,471.0
142,503.0,498.0,493.0,488.0,485.0,479.0
143,500.0,495.0,491.0,486.0,478.0,473.0
144,499.0,496.0,492.0,488.0,486.0,481.0
145,500.0,495.0,490.0,485.0,479.0,474.0
146,502.0,497.0,492.0,488.0,486.0,481.0
147,502.0,496.0,491.0,486.0,479.0,474.0
148,501.0,497.0,493.0,489.0,488.0,483.0
149,498.0,494.0,490.0,485.0,480.0,476.0
150,497.0,494.0,490.0,486.0,486.0,482.0
151,497.0,492.0,487.0,483.0,477.0,474.0
152,499.0,494.0,489.0,485.0,484.0,480.0
153,499.0,493.0,488.0,483.0,476.0,473.0
154,499.0,495.0,490.0,486.0,484.0,480.0
155,497.0,492.0,488.0,483.0,476.0,472.0
156,501.0,496.0,491.0,486.0,484.0,479.0
157,499.0,494.0,489.0,484.0,477.0,473.0
158,499.0,495.0,491.0,487.0,485.0,480.0
159,498.0,493.0,489.0,484.0,477.0,473.0
160,502.0,497.0,492.0,487.0,484.0,479.0
161,502.0,496.0,491.0,486.0,478.0,473.0
162,500.0,496.0,492.0,488.0,485.0,481.0
163,503.0,497.0,491.0,486.0,479.0,474.0
164,502.0,498.0,493.0,489.0,487.0,482.0
165,502.0,497.0,492.0,487.0,480.0,475.0
166,504.0,499.0,494.0,490.0,487.0,483.0
167,506.0,500.0,494.0,489.0,481.0,476.0
168,503.0,499.0,495.0,491.0,489.0,484.0
169,505.0,499.0,494.0,489.0,482.0,477.0
170,507.0,502.0,497.0,493.0,490.0,485.0
171,512.0,505.0,498.0,493.0,484.0,479.0
172,511.0,506.0,501.0,497.0,494.0,489.0
173,511.0,505.0,500.0,495.0,487.0,482.0
174,512.0,507.0,502.0,498.0,495.0,490.0
175,518.0,510.0,503.0,498.0,489.0,484.0
176,523.0,516.0,509.0,504.0,499.0,493.0
177,526.0,519.0,512.0,505.0,495.0,488.0
178,535.0,528.0,520.0,513.0,507.0,499.0
179,541.0,532.0,524.0,517.0,505.0,496.0
180,545.0,538.0,531.0,524.0,517.0,508.0
181,545.0,538.0,532.0,526.0,514.0,505.0
182,540.0,537.0,533.0,528.0,524.0,516.0
183,534.0,531.0,528.0,524.0,517.0,510.0
184,528.0,527.0,525.0,522.0,521.0,516.0
185,532.0,526.0,522.0,518.0,512.0,508.0
186,531.0,527.0,523.0,519.0,518.0,514.0
187,531.0,525.0,521.0,516.0,509.0,506.0
188,526.0,523.0,520.0,517.0,516.0,512.0
189,515.0,514.0,512.0,509.0,505.0,503.0
190,509.0,508.0,507.0,506.0,508.0,507.0
191,499.0,498.0,497.0,496.0,494.0,494.0
192,487.0,488.0,489.0,489.0,494.0,495.0
193,490.0,486.0,483.0,481.0,480.0,482.0
194,489.0,486.0,482.0,480.0,483.0,484.0
195,490.0,485.0,480.0,476.0,472.0,473.0
196,492.0,487.0,482.0,479.0,479.0,478.0
197,486.0,483.0,479.0,475.0,470.0,468.0
198,487.0,483.0,479.0,476.0,476.0,474.0
199,488.0,482.0,478.0,473.0,468.0,465.0
200,492.0,486.0,481.0,477.0,475.0,472.0
201,492.0,486.0,480.0,475.0,468.0,464.0
202,491.0,486.0,482.0,478.0,476.0,472.0
203,490.0,485.0,480.0,476.0,469.0,465.0
204,491.0,487.0,483.0,479.0,476.0,472.0
205,490.0,485.0,480.0,476.0,469.0,465.0
206,489.0,485.0,481.0,478.0,476.0,472.0
207,489.0,484.0,479.0,475.0,468.0,464.0
208,467.0,470.0,470.0,470.0,471.0,468.0
209,443.0,448.0,452.0,454.0,455.0,455.0
210,434.0,437.0,439.0,442.0,451.0,455.0
211,470.0,456.0,447.0,442.0,440.0,442.0
212,518.0,495.0,477.0,463.0,455.0,451.0
213,613.0,572.0,537.0,509.0,476.0,459.0
214,745.0,685.0,635.0,592.0,538.0,503.0
215,862.0,799.0,742.0,688.0,607.0,551.0
216,952.0,897.0,843.0,790.0,701.0,630.0
217,970.0,937.0,901.0,859.0,773.0,695.0
218,901.0,909.0,903.0,885.0,831.0,762.0
219,799.0,830.0,850.0,857.0,835.0,788.0
220,657.0,709.0,753.0,786.0,812.0,797.0
221,503.0,568.0,623.0,672.0,733.0,753.0
222,473.0,502.0,538.0,580.0,658.0,703.0
223,495.0,493.0,502.0,523.0,582.0,635.0
224,493.0,489.0,490.0,497.0,542.0,590.0
225,472.0,473.0,474.0,477.0,501.0,541.0
226,467.0,467.0,467.0,467.0,485.0,516.0
227,464.0,461.0,459.0,457.0,464.0,485.0
228,461.0,459.0,457.0,455.0,461.0,476.0
229,457.0,453.0,451.0,448.0,447.0,457.0
230,455.0,452.0,450.0,447.0,450.0,456.0
231,456.0,451.0,447.0,443.0,439.0,443.0
232,459.0,454.0,449.0,445.0,444.0,445.0
233,464.0,457.0,451.0,445.0,438.0,436.0
234,467.0,462.0,456.0,451.0,447.0,444.0
235,474.0,466.0,459.0,453.0,443.0,438.0
236,475.0,470.0,464.0,459.0,454.0,448.0
237,477.0,471.0,465.0,459.0,450.0,443.0
238,484.0,477.0,471.0,465.0,461.0,454.0
239,488.0,481.0,474.0,467.0,457.0,450.0
240,490.0,484.0,479.0,473.0,468.0,461.0
241,493.0,486.0,480.0,474.0,464.0,457.0
242,498.0,491.0,485.0,480.0,475.0,467.0
243,503.0,495.0,488.0,482.0,471.0,464.0
244,504.0,499.0,493.0,488.0,484.0,476.0
245,508.0,501.0,495.0,489.0,479.0,472.0
246,515.0,508.0,501.0,495.0,490.0,482.0
247,515.0,508.0,502.0,496.0,486.0,478.0
248,524.0,516.0,509.0,503.0,497.0,489.0
249,527.0,519.0,512.0,505.0,494.0,486.0
250,533.0,526.0,519.0,513.0,506.0,498.0
251,539.0,531.0,523.0,516.0,504.0,495.0
252,544.0,537.0,530.0,523.0,516.0,507.0
253,551.0,542.0,534.0,527.0,514.0,505.0
254,555.0,548.0,541.0,534.0,527.0,518.0
255,560.0,552.0,545.0,537.0,525.0,515.0
0,566.0,559.0,552.0,545.0,536.0,526.0
1,574.0,565.0,557.0,549.0,535.0,525.0
2,579.0,572.0,565.0,558.0,549.0,538.0
3,586.0,577.0,569.0,562.0,548.0,537.0
4,589.0,583.0,576.0,569.0,561.0,550.0
5,596.0,588.0,580.0,572.0,559.0,549.0
6,599.0,593.0,586.0,579.0,572.0,561.0
7,597.0,591.0,586.0,579.0,568.0,559.0
8,598.0,593.0,588.0,583.0,578.0,570.0
9,597.0,591.0,586.0,581.0,572.0,565.0
10,594.0,590.0,587.0,583.0,580.0,573.0
11,592.0,587.0,583.0,579.0,572.0,566.0
12,587.0,585.0,582.0,579.0,579.0,575.0
13,578.0,576.0,574.0,571.0,568.0,565.0
14,564.0,565.0,565.0,565.0,569.0,568.0
15,548.0,549.0,550.0,551.0,552.0,553.0
16,527.0,532.0,535.0,538.0,547.0,551.0
17,515.0,517.0,519.0,521.0,527.0,533.0
18,497.0,501.0,504.0,507.0,520.0,528.0
19,488.0,488.0,489.0,491.0,498.0,507.0
20,478.0,479.0,480.0,482.0,492.0,501.0
21,466.0,467.0,467.0,468.0,473.0,481.0
22,457.0,458.0,459.0,460.0,469.0,477.0
23,452.0,450.0,449.0,449.0,452.0,459.0
24,444.0,443.0,443.0,443.0,449.0,455.0
25,441.0,438.0,436.0,434.0,434.0,439.0
26,439.0,436.0,434.0,432.0,436.0,440.0
27,435.0,432.0,429.0,426.0,424.0,427.0
28,438.0,434.0,430.0,427.0,429.0,430.0
29,439.0,433.0,429.0,425.0,420.0,420.0
30,438.0,434.0,430.0,427.0,426.0,425.0
31,440.0,434.0,429.0,425.0,419.0,417.0
32,436.0,434.0,430.0,427.0,426.0,423.0
33,437.0,432.0,428.0,424.0,418.0,415.0
34,436.0,433.0,429.0,426.0,425.0,422.0
35,442.0,435.0,430.0,425.0,418.0,415.0
36,445.0,440.0,435.0,430.0,428.0,424.0
37,447.0,441.0,435.0,430.0,422.0,418.0
38,448.0,444.0,439.0,434.0,431.0,427.0
39,450.0,444.0,439.0,434.0,426.0,421.0
40,453.0,448.0,443.0,438.0,435.0,429.0
41,457.0,450.0,444.0,438.0,430.0,424.0
42,459.0,454.0,448.0,443.0,440.0,434.0
43,459.0,454.0,448.0,443.0,435.0,429.0
44,463.0,458.0,453.0,447.0,444.0,438.0
45,468.0,461.0,455.0,448.0,439.0,433.0
46,469.0,464.0,459.0,453.0,449.0,443.0
47,471.0,465.0,460.0,454.0,445.0,438.0
48,473.0,468.0,463.0,458.0,453.0,447.0
49,478.0,471.0,465.0,459.0,449.0,442.0
50,480.0,474.0,469.0,464.0,459.0,452.0
51,481.0,475.0,469.0,464.0,454.0,447.0
52,485.0,479.0,474.0,469.0,464.0,458.0
53,489.0,482.0,476.0,470.0,460.0,453.0
54,488.0,484.0,479.0,474.0,470.0,463.0
55,491.0,485.0,479.0,473.0,464.0,458.0
56,489.0,485.0,481.0,476.0,473.0,467.0
57,490.0,485.0,480.0,475.0,467.0,461.0
58,489.0,486.0,481.0,477.0,475.0,470.0
59,491.0,485.0,480.0,475.0,468.0,463.0
60,493.0,489.0,484.0,479.0,477.0,472.0
61,494.0,489.0,483.0,478.0,471.0,466.0
62,493.0,489.0,485.0,481.0,478.0,474.0
63,493.0,488.0,483.0,478.0,471.0,467.0
64,495.0,490.0,485.0,481.0,479.0,474.0
65,494.0,489.0,484.0,479.0,472.0,467.0
66,494.0,490.0,486.0,482.0,479.0,475.0
67,493.0,488.0,484.0,479.0,472.0,468.0
68,493.0,490.0,485.0,481.0,479.0,475.0
69,493.0,488.0,483.0,479.0,472.0,468.0
70,493.0,489.0,485.0,481.0,479.0,475.0
71,492.0,488.0,483.0,478.0,471.0,467.0
72,492.0,489.0,484.0,480.0,477.0,473.0
73,492.0,487.0,483.0,478.0,471.0,466.0
74,495.0,490.0,485.0,481.0,478.0,474.0
75,496.0,490.0,485.0,479.0,472.0,467.0
76,495.0,491.0,487.0,482.0,480.0,475.0
77,497.0,491.0,486.0,481.0,473.0,468.0
78,500.0,494.0,489.0,485.0,482.0,477.0
79,497.0,492.0,487.0,482.0,475.0,470.0
80,499.0,494.0,490.0,485.0,483.0,478.0
81,499.0,494.0,489.0,484.0,476.0,471.0
82,492.0,490.0,487.0,484.0,483.0,478.0
83,493.0,488.0,484.0,480.0,474.0,471.0
84,495.0,491.0,486.0,482.0,482.0,479.0
85,500.0,493.0,487.0,481.0,475.0,471.0
86,497.0,494.0,489.0,484.0,482.0,478.0
87,497.0,492.0,487.0,482.0,475.0,471.0
88,498.0,494.0,489.0,485.0,483.0,479.0
89,499.0,494.0,489.0,484.0,476.0,472.0
90,497.0,494.0,490.0,486.0,483.0,479.0
91,500.0,494.0,489.0,484.0,477.0,472.0
92,498.0,495.0,491.0,487.0,484.0,480.0
93,499.0,494.0,489.0,484.0,477.0,473.0
94,501.0,497.0,492.0,488.0,485.0,481.0
95,506.0,500.0,493.0,487.0,479.0,474.0
96,506.0,502.0,496.0,491.0,486.0,481.0
97,507.0,502.0,496.0,491.0,481.0,476.0
98,509.0,505.0,500.0,495.0,491.0,485.0
99,512.0,506.0,500.0,495.0,486.0,479.0
100,523.0,516.0,508.0,502.0,496.0,489.0
101,535.0,525.0,516.0,507.0,495.0,487.0
102,540.0,533.0,525.0,517.0,509.0,499.0
103,546.0,539.0,530.0,522.0,508.0,498.0
104,545.0,541.0,535.0,529.0,521.0,511.0
105,541.0,538.0,533.0,528.0,517.0,508.0
106,531.0,531.0,529.0,527.0,524.0,517.0
107,525.0,523.0,521.0,519.0,514.0,509.0
108,531.0,526.0,522.0,520.0,521.0,517.0
109,532.0,527.0,521.0,517.0,511.0,508.0
110,533.0,529.0,524.0,519.0,518.0,515.0
111,528.0,524.0,520.0,516.0,509.0,506.0
112,516.0,517.0,516.0,514.0,514.0,512.0
113,512.0,510.0,508.0,506.0,503.0,501.0
114,497.0,499.0,499.0,499.0,503.0,503.0
115,485.0,486.0,486.0,486.0,487.0,489.0
116,482.0,482.0,481.0,481.0,486.0,489.0
117,484.0,480.0,476.0,474.0,473.0,476.0
118,485.0,481.0,477.0,474.0,476.0,478.0
119,486.0,481.0,476.0,471.0,467.0,467.0
120,486.0,482.0,478.0,473.0,471.0,470.0
121,484.0,480.0,476.0,471.0,464.0,461.0
122,482.0,479.0,476.0,472.0,471.0,468.0
123,483.0,478.0,474.0,469.0,463.0,460.0
124,484.0,480.0,476.0,472.0,470.0,467.0
125,487.0,481.0,476.0,470.0,463.0,459.0
126,484.0,481.0,477.0,473.0,471.0,467.0
127,485.0,481.0,476.0,471.0,464.0,460.0
128,483.0,480.0,476.0,473.0,471.0,467.0
129,484.0,479.0,475.0,470.0,464.0,460.0
130,478.0,477.0,474.0,471.0,470.0,466.0
131,453.0,457.0,459.0,459.0,457.0,456.0
132,428.0,436.0,441.0,445.0,455.0,457.0
133,437.0,434.0,433.0,433.0,437.0,441.0
134,490.0,470.0,456.0,447.0,445.0,446.0
135,562.0,529.0,502.0,480.0,456.0,447.0
136,679.0,629.0,585.0,548.0,506.0,480.0
137,797.0,738.0,684.0,636.0,565.0,519.0
138,919.0,858.0,799.0,743.0,657.0,593.0
139,1018.0,957.0,899.0,842.0,743.0,663.0
140,1019.0,991.0,956.0,914.0,831.0,748.0
141,970.0,970.0,959.0,939.0,876.0,803.0
142,828.0,872.0,898.0,909.0,893.0,844.0
143,626.0,702.0,762.0,807.0,840.0,829.0
144,496.0,564.0,625.0,683.0,761.0,790.0
145,500.0,518.0,547.0,588.0,666.0,717.0
146,479.0,489.0,503.0,528.0,598.0,658.0
147,470.0,473.0,478.0,489.0,535.0,591.0
148,462.0,463.0,465.0,470.0,504.0,550.0
149,453.0,453.0,453.0,453.0,470.0,506.0
150,444.0,446.0,446.0,446.0,460.0,486.0
151,441.0,439.0,438.0,436.0,440.0,459.0
152,439.0,437.0,435.0,434.0,439.0,452.0
153,443.0,438.0,433.0,430.0,428.0,435.0
154,441.0,438.0,434.0,431.0,432.0,436.0
155,448.0,442.0,436.0,431.0,424.0,426.0
156,450.0,446.0,440.0,436.0,434.0,433.0
157,452.0,447.0,441.0,436.0,428.0,426.0
158,456.0,451.0,446.0,441.0,438.0,434.0
159,460.0,454.0,448.0,442.0,433.0,428.0
160,466.0,460.0,454.0,448.0,444.0,438.0
161,469.0,463.0,457.0,450.0,440.0,434.0
162,472.0,468.0,462.0,456.0,451.0,445.0
163,480.0,473.0,466.0,459.0,449.0,441.0
164,486.0,481.0,474.0,467.0,461.0,453.0
165,487.0,482.0,475.0,469.0,458.0,450.0
166,493.0,488.0,481.0,475.0,470.0,461.0
167,499.0,492.0,485.0,478.0,467.0,459.0
168,502.0,497.0,490.0,484.0,477.0,469.0
169,508.0,501.0,494.0,487.0,475.0,466.0
170,513.0,507.0,500.0,494.0,487.0,478.0
171,519.0,512.0,504.0,497.0,485.0,476.0
172,523.0,517.0,510.0,504.0,497.0,488.0
173,532.0,524.0,516.0,508.0,496.0,486.0
174,536.0,530.0,523.0,516.0,509.0,499.0
175,543.0,535.0,527.0,520.0,507.0,497.0
176,548.0,542.0,535.0,528.0,520.0,510.0
177,555.0,547.0,539.0,532.0,519.0,508.0
178,560.0,554.0,547.0,540.0,532.0,522.0
179,565.0,559.0,551.0,543.0,530.0,520.0
180,575.0,568.0,560.0,553.0,545.0,535.0
181,579.0,572.0,564.0,556.0,544.0,533.0
182,586.0,580.0,572.0,565.0,557.0,547.0
183,593.0,585.0,577.0,569.0,556.0,545.0
184,595.0,590.0,583.0,576.0,569.0,558.0
185,595.0,590.0,584.0,577.0,565.0,556.0
186,596.0,592.0,587.0,582.0,576.0,567.0
187,596.0,592.0,586.0,581.0,571.0,563.0
188,597.0,593.0,588.0,584.0,580.0,573.0
189,597.0,592.0,587.0,582.0,573.0,567.0
190,592.0,590.0,586.0,583.0,580.0,575.0
191,584.0,582.0,580.0,576.0,571.0,566.0
192,570.0,572.0,572.0,571.0,572.0,570.0
193,560.0,561.0,560.0,560.0,558.0,558.0
194,542.0,547.0,549.0,550.0,556.0,558.0
195,526.0,529.0,532.0,533.0,537.0,541.0
196,511.0,516.0,518.0,521.0,531.0,538.0
197,497.0,500.0,501.0,504.0,510.0,518.0
198,484.0,488.0,490.0,492.0,503.0,512.0
199,473.0,475.0,476.0,477.0,483.0,492.0
200,460.0,463.0,465.0,467.0,477.0,486.0
201,455.0,455.0,454.0,454.0,458.0,467.0
202,449.0,450.0,449.0,449.0,456.0,464.0
203,445.0,444.0,442.0,440.0,441.0,447.0
204,439.0,439.0,438.0,437.0,443.0,448.0
205,439.0,436.0,433.0,430.0,430.0,433.0
206,437.0,436.0,433.0,430.0,433.0,435.0
207,437.0,434.0,430.0,426.0,423.0,424.0
208,437.0,435.0,431.0,428.0,428.0,428.0
209,439.0,435.0,430.0,426.0,420.0,419.0
210,442.0,438.0,433.0,429.0,427.0,425.0
211,444.0,439.0,433.0,428.0,421.0,418.0
212,447.0,443.0,438.0,433.0,430.0,426.0
213,447.0,443.0,437.0,432.0,425.0,420.0
214,448.0,445.0,440.0,436.0,433.0,428.0
215,456.0,449.0,442.0,436.0,428.0,423.0
216,455.0,452.0,447.0,441.0,436.0,431.0
217,460.0,455.0,449.0,443.0,433.0,426.0
218,459.0,456.0,451.0,447.0,443.0,436.0
219,464.0,459.0,453.0,447.0,438.0,432.0
220,464.0,461.0,456.0,451.0,447.0,441.0
221,467.0,463.0,457.0,451.0,443.0,436.0
222,469.0,465.0,460.0,455.0,452.0,446.0
223,470.0,465.0,460.0,455.0,447.0,441.0
224,473.0,469.0,464.0,459.0,456.0,450.0
225,476.0,471.0,465.0,459.0,450.0,444.0
226,477.0,473.0,468.0,463.0,460.0,454.0
227,478.0,473.0,468.0,462.0,454.0,448.0
228,478.0,475.0,470.0,466.0,464.0,459.0
229,481.0,476.0,470.0,465.0,458.0,452.0
230,481.0,478.0,473.0,469.0,466.0,461.0
231,484.0,479.0,473.0,468.0,460.0,455.0
232,486.0,483.0,477.0,472.0,469.0,464.0
233,486.0,482.0,476.0,471.0,463.0,458.0
234,487.0,483.0,478.0,474.0,471.0,466.0
235,488.0,483.0,478.0,473.0,465.0,460.0
236,486.0,483.0,479.0,475.0,473.0,468.0
237,487.0,483.0,478.0,473.0,466.0,461.0
238,485.0,482.0,478.0,475.0,473.0,469.0
239,487.0,482.0,477.0,472.0,466.0,461.0
240,489.0,485.0,480.0,475.0,472.0,467.0
241,490.0,485.0,479.0,474.0,466.0,461.0
242,489.0,486.0,481.0,477.0,474.0,469.0
243,488.0,484.0,479.0,475.0,467.0,463.0
244,493.0,488.0,483.0,478.0,475.0,471.0
245,495.0,489.0,483.0,478.0,469.0,464.0
246,493.0,490.0,485.0,481.0,478.0,473.0
247,493.0,489.0,484.0,479.0,471.0,466.0
248,495.0,491.0,486.0,482.0,479.0,474.0
249,493.0,489.0,484.0,479.0,472.0,467.0
250,492.0,490.0,486.0,482.0,479.0,475.0
251,498.0,492.0,486.0,481.0,473.0,468.0
252,496.0,493.0,488.0,484.0,482.0,478.0
253,494.0,491.0,486.0,481.0,475.0,471.0
254,496.0,492.0,488.0,484.0,482.0,478.0
255,496.0,491.0,486.0,481.0,474.0,470.0
0,497.0,493.0,488.0,484.0,482.0,478.0
1,497.0,493.0,487.0,482.0,475.0,471.0
2,498.0,495.0,490.0,485.0,483.0,479.0
3,500.0,495.0,489.0,484.0,476.0,471.0
4,496.0,494.0,490.0,486.0,484.0,479.0
5,494.0,491.0,487.0,482.0,476.0,472.0
6,501.0,496.0,491.0,486.0,484.0,479.0
7,502.0,497.0,491.0,485.0,478.0,473.0
8,503.0,499.0,494.0,489.0,485.0,480.0
9,502.0,498.0,493.0,487.0,479.0,474.0
10,505.0,501.0,496.0,491.0,487.0,482.0
11,500.0,497.0,493.0,488.0,481.0,476.0
12,507.0,502.0,497.0,492.0,489.0,484.0
13,507.0,502.0,496.0,491.0,483.0,478.0
14,505.0,503.0,498.0,494.0,491.0,486.0
15,510.0,504.0,498.0,493.0,485.0,480.0
16,512.0,508.0,502.0,497.0,494.0,488.0
17,515.0,509.0,503.0,497.0,488.0,483.0
18,519.0,514.0,507.0,502.0,498.0,492.0
19,528.0,520.0,512.0,504.0,494.0,487.0
20,537.0,530.0,521.0,514.0,508.0,500.0
21,544.0,536.0,527.0,519.0,506.0,497.0
22,547.0,542.0,534.0,527.0,519.0,510.0
23,549.0,543.0,536.0,529.0,517.0,507.0
24,540.0,539.0,535.0,531.0,526.0,518.0
25,528.0,528.0,527.0,524.0,518.0,512.0
26,524.0,524.0,522.0,521.0,522.0,518.0
27,532.0,526.0,521.0,517.0,512.0,509.0
28,531.0,527.0,522.0,518.0,518.0,515.0
29,532.0,527.0,521.0,516.0,509.0,506.0
30,522.0,522.0,519.0,516.0,515.0,512.0
31,516.0,514.0,512.0,509.0,505.0,502.0
32,505.0,506.0,505.0,504.0,506.0,505.0
33,491.0,493.0,493.0,493.0,492.0,492.0
34,482.0,484.0,484.0,485.0,491.0,493.0
35,480.0,478.0,476.0,475.0,476.0,478.0
36,483.0,480.0,476.0,474.0,477.0,480.0
37,484.0,479.0,474.0,470.0,467.0,468.0
38,484.0,481.0,476.0,472.0,472.0,472.0
39,484.0,479.0,475.0,470.0,464.0,462.0
40,484.0,480.0,476.0,472.0,471.0,468.0
41,486.0,481.0,475.0,470.0,464.0,460.0
42,485.0,481.0,477.0,473.0,471.0,467.0
43,488.0,482.0,477.0,472.0,464.0,460.0
44,486.0,483.0,478.0,474.0,473.0,469.0
45,484.0,480.0,476.0,471.0,465.0,461.0
46,484.0,481.0,477.0,473.0,472.0,468.0
47,488.0,482.0,477.0,472.0,465.0,461.0
48,487.0,483.0,479.0,474.0,472.0,468.0
49,487.0,482.0,477.0,472.0,465.0,461.0
50,463.0,467.0,468.0,467.0,469.0,466.0
51,433.0,441.0,446.0,449.0,452.0,453.0
52,427.0,430.0,433.0,437.0,447.0,451.0
53,479.0,460.0,447.0,440.0,437.0,439.0
54,534.0,508.0,486.0,469.0,456.0,450.0
55,646.0,598.0,558.0,525.0,484.0,464.0
56,771.0,712.0,660.0,613.0,551.0,511.0
57,887.0,825.0,767.0,712.0,626.0,565.0
58,1010.0,943.0,882.0,823.0,728.0,650.0
59,1018.0,985.0,945.0,898.0,805.0,721.0
60,981.0,977.0,962.0,937.0,872.0,796.0
61,862.0,895.0,912.0,915.0,884.0,829.0
62,678.0,747.0,798.0,835.0,860.0,840.0
63,507.0,583.0,649.0,706.0,774.0,794.0
64,501.0,527.0,563.0,608.0,692.0,740.0
65,491.0,498.0,514.0,540.0,607.0,666.0
66,476.0,481.0,488.0,501.0,556.0,612.0
67,470.0,470.0,471.0,476.0,507.0,555.0
68,461.0,462.0,462.0,464.0,488.0,525.0
69,452.0,452.0,451.0,451.0,461.0,489.0
70,447.0,447.0,446.0,445.0,455.0,475.0
71,449.0,446.0,442.0,439.0,440.0,453.0
72,448.0,445.0,442.0,439.0,442.0,451.0
73,449.0,445.0,440.0,436.0,432.0,437.0
74,455.0,450.0,444.0,440.0,439.0,440.0
75,461.0,454.0,447.0,441.0,433.0,432.0
76,461.0,457.0,452.0,447.0,443.0,440.0
77,464.0,459.0,453.0,447.0,438.0,434.0
78,468.0,463.0,457.0,452.0,448.0,443.0
79,474.0,467.0,460.0,454.0,444.0,438.0
80,476.0,471.0,465.0,460.0,454.0,447.0
81,481.0,475.0,468.0,462.0,451.0,444.0
82,490.0,483.0,476.0,469.0,463.0,455.0
83,495.0,487.0,480.0,472.0,461.0,453.0
84,498.0,493.0,486.0,480.0,473.0,465.0
85,502.0,495.0,488.0,482.0,471.0,462.0
86,504.0,499.0,493.0,488.0,482.0,474.0
87,505.0,500.0,494.0,488.0,478.0,470.0
88,508.0,504.0,498.0,493.0,488.0,481.0
89,514.0,507.0,500.0,494.0,484.0,477.0
90,520.0,514.0,507.0,501.0,495.0,487.0
91,526.0,519.0,511.0,504.0,493.0,484.0
92,530.0,525.0,518.0,511.0,506.0,497.0
93,536.0,529.0,521.0,514.0,503.0,494.0
94,543.0,536.0,528.0,522.0,515.0,506.0
95,550.0,542.0,533.0,525.0,513.0,503.0
96,555.0,548.0,541.0,534.0,526.0,516.0
97,560.0,552.0,545.0,537.0,524.0,514.0
98,567.0,560.0,552.0,545.0,537.0,527.0
99,577.0,567.0,558.0,550.0,536.0,526.0
100,584.0,576.0,568.0,560.0,551.0,540.0
101,589.0,580.0,572.0,564.0,550.0,539.0
102,591.0,586.0,579.0,572.0,564.0,553.0
103,595.0,588.0,581.0,574.0,561.0,551.0
104,601.0,594.0,587.0,580.0,572.0,562.0
105,603.0,596.0,589.0,582.0,570.0,560.0
106,603.0,599.0,593.0,587.0,581.0,572.0
107,604.0,598.0,592.0,587.0,576.0,568.0
108,598.0,596.0,592.0,588.0,585.0,577.0
109,595.0,591.0,587.0,583.0,576.0,570.0
110,586.0,585.0,583.0,581.0,581.0,577.0
111,573.0,573.0,572.0,571.0,568.0,566.0
112,558.0,560.0,561.0,562.0,568.0,568.0
113,547.0,548.0,548.0,548.0,550.0,553.0
114,534.0,536.0,537.0,539.0,547.0,551.0
115,517.0,519.0,521.0,523.0,527.0,533.0
116,501.0,505.0,508.0,511.0,523.0,530.0
117,487.0,489.0,491.0,493.0,500.0,509.0
118,474.0,477.0,479.0,482.0,493.0,503.0
119,463.0,464.0,465.0,466.0,473.0,482.0
120,455.0,456.0,456.0,458.0,468.0,477.0
121,449.0,448.0,447.0,446.0,450.0,458.0
122,445.0,444.0,443.0,442.0,449.0,455.0
123,441.0,439.0,436.0,434.0,434.0,440.0
124,441.0,439.0,436.0,433.0,437.0,440.0
125,441.0,437.0,433.0,429.0,426.0,428.0
126,438.0,436.0,432.0,430.0,431.0,431.0
127,440.0,435.0,431.0,427.0,422.0,421.0
128,439.0,436.0,432.0,428.0,427.0,425.0
129,443.0,437.0,432.0,427.0,420.0,417.0
130,445.0,441.0,436.0,431.0,429.0,425.0
131,447.0,442.0,436.0,431.0,423.0,419.0
132,447.0,443.0,439.0,434.0,432.0,427.0
133,446.0,442.0,437.0,433.0,425.0,421.0
134,448.0,445.0,440.0,436.0,434.0,429.0
135,453.0,447.0,441.0,436.0,428.0,423.0
136,456.0,451.0,446.0,441.0,437.0,432.0
137,456.0,451.0,446.0,440.0,432.0,427.0
138,456.0,452.0,448.0,444.0,441.0,435.0
139,459.0,453.0,448.0,443.0,435.0,429.0
140,463.0,458.0,452.0,447.0,445.0,440.0
141,469.0,462.0,455.0,449.0,440.0,435.0
142,468.0,464.0,459.0,454.0,450.0,444.0
143,468.0,463.0,458.0,453.0,444.0,439.0
144,469.0,465.0,460.0,456.0,453.0,447.0
145,475.0,468.0,462.0,456.0,448.0,442.0
146,474.0,470.0,465.0,460.0,457.0,451.0
147,475.0,469.0,464.0,459.0,451.0,445.0
148,479.0,474.0,468.0,463.0,460.0,454.0
149,480.0,474.0,468.0,463.0,454.0,449.0
150,483.0,478.0,473.0,468.0,464.0,458.0
151,483.0,478.0,473.0,467.0,459.0,453.0
152,486.0,481.0,476.0,471.0,466.0,460.0
153,487.0,481.0,476.0,470.0,461.0,455.0
154,487.0,483.0,478.0,474.0,470.0,464.0
155,487.0,482.0,477.0,472.0,464.0,458.0
156,489.0,484.0,479.0,475.0,472.0,467.0
157,491.0,485.0,479.0,474.0,466.0,461.0
158,495.0,490.0,484.0,479.0,475.0,470.0
159,493.0,488.0,483.0,478.0,469.0,464.0
160,495.0,491.0,486.0,481.0,478.0,472.0
161,497.0,491.0,485.0,480.0,472.0,466.0
162,497.0,493.0,488.0,484.0,480.0,475.0
163,498.0,493.0,487.0,482.0,474.0,469.0
164,496.0,493.0,489.0,485.0,483.0,478.0
165,499.0,493.0,488.0,483.0,476.0,471.0
166,500.0,495.0,490.0,486.0,484.0,479.0
167,502.0,496.0,490.0,485.0,477.0,472.0
168,499.0,495.0,491.0,487.0,485.0,480.0
169,500.0,494.0,489.0,485.0,478.0,473.0
170,498.0,494.0,490.0,486.0,485.0,480.0
171,499.0,493.0,489.0,484.0,477.0,473.0
172,496.0,493.0,489.0,486.0,484.0,480.0
173,495.0,491.0,486.0,482.0,476.0,472.0
174,498.0,493.0,488.0,484.0,483.0,479.0
175,501.0,495.0,489.0,483.0,476.0,472.0
176,498.0,494.0,490.0,486.0,482.0,478.0
177,499.0,494.0,489.0,484.0,476.0,471.0
178,500.0,496.0,491.0,487.0,484.0,479.0
179,499.0,494.0,489.0,484.0,477.0,472.0
180,497.0,494.0,490.0,486.0,484.0,480.0
181,494.0,490.0,486.0,482.0,476.0,472.0
182,496.0,492.0,487.0,484.0,483.0,479.0
183,500.0,494.0,488.0,483.0,476.0,472.0
184,499.0,495.0,490.0,486.0,483.0,479.0
185,501.0,495.0,490.0,484.0,477.0,472.0
186,500.0,497.0,492.0,488.0,485.0,480.0
187,501.0,496.0,491.0,486.0,478.0,474.0
188,495.0,494.0,490.0,487.0,486.0,482.0
189,499.0,494.0,489.0,484.0,478.0,474.0
190,503.0,498.0,492.0,488.0,486.0,481.0
191,507.0,500.0,494.0,488.0,480.0,475.0
192,506.0,502.0,497.0,492.0,489.0,483.0
193,513.0,505.0,499.0,493.0,483.0,478.0
194,513.0,509.0,503.0,497.0,493.0,487.0
195,519.0,512.0,505.0,499.0,489.0,482.0
196,531.0,523.0,515.0,507.0,501.0,493.0
197,539.0,530.0,521.0,513.0,500.0,491.0
198,539.0,533.0,527.0,520.0,513.0,503.0
199,548.0,539.0,531.0,523.0,511.0,501.0
200,550.0,544.0,537.0,530.0,522.0,512.0
201,538.0,536.0,532.0,528.0,518.0,509.0
202,526.0,528.0,527.0,525.0,524.0,518.0
203,527.0,523.0,520.0,518.0,514.0,509.0
204,530.0,526.0,521.0,518.0,518.0,515.0
205,533.0,527.0,521.0,516.0,510.0,506.0
206,532.0,528.0,523.0,519.0,517.0,513.0
207,522.0,520.0,517.0,514.0,508.0,504.0
208,514.0,514.0,512.0,511.0,512.0,509.0
209,502.0,502.0,501.0,500.0,499.0,498.0
210,494.0,495.0,494.0,494.0,499.0,500.0
211,487.0,486.0,485.0,484.0,484.0,486.0
212,486.0,484.0,482.0,481.0,486.0,489.0
213,487.0,483.0,479.0,475.0,474.0,475.0
214,491.0,487.0,481.0,477.0,478.0,478.0
215,489.0,485.0,480.0,475.0,469.0,468.0
216,491.0,487.0,482.0,478.0,476.0,474.0
217,490.0,485.0,480.0,476.0,469.0,466.0
218,493.0,488.0,483.0,479.0,476.0,473.0
219,492.0,487.0,482.0,477.0,469.0,465.0
220,487.0,485.0,482.0,478.0,477.0,473.0
221,489.0,484.0,479.0,475.0,469.0,465.0
222,485.0,483.0,479.0,476.0,475.0,472.0
223,488.0,483.0,478.0,473.0,467.0,464.0
224,489.0,485.0,480.0,476.0,473.0,469.0
225,492.0,486.0,481.0,475.0,467.0,463.0
226,485.0,484.0,480.0,477.0,475.0,470.0
227,468.0,469.0,469.0,467.0,464.0,461.0
228,434.0,444.0,450.0,454.0,461.0,462.0
229,431.0,432.0,434.0,437.0,442.0,446.0
230,481.0,464.0,452.0,445.0,447.0,448.0
231,538.0,510.0,487.0,469.0,452.0,446.0
232,647.0,601.0,562.0,530.0,494.0,474.0
233,778.0,716.0,662.0,614.0,548.0,508.0
234,897.0,834.0,776.0,720.0,638.0,577.0
235,1016.0,949.0,886.0,827.0,726.0,647.0
236,1018.0,989.0,951.0,906.0,819.0,735.0
237,974.0,972.0,959.0,935.0,869.0,793.0
238,863.0,895.0,913.0,918.0,894.0,840.0
239,674.0,741.0,793.0,830.0,852.0,833.0
240,512.0,586.0,650.0,708.0,781.0,801.0
241,498.0,524.0,560.0,605.0,684.0,732.0
242,496.0,502.0,517.0,543.0,615.0,673.0
243,481.0,483.0,489.0,501.0,549.0,605.0
244,475.0,475.0,477.0,481.0,516.0,563.0
245,465.0,465.0,465.0,465.0,482.0,518.0
246,454.0,456.0,456.0,456.0,471.0,498.0
247,450.0,448.0,447.0,446.0,451.0,470.0
248,444.0,444.0,442.0,441.0,447.0,461.0
249,447.0,442.0,438.0,435.0,434.0,443.0
250,451.0,446.0,441.0,437.0,438.0,443.0
251,454.0,448.0,442.0,437.0,431.0,432.0
252,460.0,454.0,448.0,443.0,440.0,438.0
253,461.0,455.0,449.0,443.0,435.0,431.0
254,467.0,461.0,455.0,449.0,445.0,440.0
255,473.0,466.0,459.0,452.0,442.0,436.0
0,476.0,471.0,465.0,459.0,454.0,447.0
1,481.0,474.0,467.0,461.0,451.0,443.0
2,485.0,479.0,473.0,467.0,462.0,454.0
3,486.0,480.0,474.0,468.0,458.0,450.0
4,485.0,481.0,477.0,472.0,469.0,462.0
5,495.0,487.0,480.0,474.0,465.0,458.0
6,498.0,492.0,486.0,480.0,475.0,468.0
7,508.0,500.0,491.0,484.0,473.0,465.0
8,516.0,508.0,500.0,493.0,486.0,477.0
9,515.0,509.0,502.0,495.0,483.0,474.0
10,515.0,510.0,505.0,500.0,495.0,486.0
11,521.0,513.0,507.0,501.0,491.0,482.0
12,525.0,519.0,513.0,507.0,501.0,493.0
13,532.0,524.0,516.0,509.0,498.0,490.0
14,535.0,529.0,522.0,516.0,510.0,501.0
15,544.0,535.0,527.0,520.0,508.0,499.0
16,551.0,544.0,536.0,528.0,520.0,510.0
17,556.0,548.0,540.0,532.0,519.0,508.0
18,565.0,557.0,549.0,541.0,532.0,522.0
19,569.0,561.0,553.0,545.0,532.0,521.0
20,572.0,566.0,559.0,553.0,545.0,534.0
21,581.0,572.0,564.0,556.0,543.0,532.0
22,589.0,581.0,573.0,565.0,557.0,546.0
23,594.0,586.0,578.0,569.0,556.0,545.0
24,598.0,592.0,585.0,578.0,569.0,558.0
25,600.0,593.0,586.0,580.0,567.0,556.0
26,600.0,596.0,590.0,585.0,578.0,568.0
27,599.0,594.0,589.0,583.0,573.0,564.0
28,603.0,598.0,592.0,587.0,584.0,576.0
29,601.0,596.0,591.0,585.0,577.0,570.0
30,594.0,592.0,589.0,586.0,584.0,578.0
31,591.0,587.0,584.0,580.0,574.0,570.0
32,580.0,580.0,579.0,577.0,578.0,575.0
33,568.0,568.0,567.0,566.0,564.0,563.0
34,548.0,552.0,554.0,556.0,562.0,564.0
35,531.0,534.0,537.0,539.0,543.0,547.0
36,516.0,520.0,523.0,526.0,537.0,543.0
37,495.0,499.0,503.0,506.0,514.0,522.0
38,485.0,488.0,490.0,493.0,506.0,515.0
39,476.0,476.0,477.0,478.0,484.0,494.0
40,465.0,466.0,467.0,468.0,478.0,487.0
41,454.0,455.0,455.0,455.0,459.0,468.0
42,448.0,448.0,448.0,448.0,456.0,464.0
43,440.0,440.0,439.0,438.0,440.0,446.0
44,439.0,437.0,435.0,434.0,440.0,445.0
45,437.0,434.0,431.0,428.0,427.0,431.0
46,437.0,434.0,431.0,428.0,431.0,433.0
47,435.0,431.0,427.0,424.0,420.0,421.0
48,437.0,433.0,429.0,426.0,426.0,425.0
49,439.0,434.0,429.0,424.0,418.0,417.0
50,440.0,436.0,432.0,427.0,426.0,423.0
51,438.0,434.0,430.0,425.0,419.0,416.0
52,445.0,440.0,434.0,430.0,429.0,425.0
53,449.0,442.0,436.0,430.0,423.0,418.0
54,451.0,446.0,440.0,435.0,432.0,427.0
55,455.0,448.0,442.0,436.0,428.0,422.0
56,461.0,455.0,448.0,443.0,438.0,432.0
57,464.0,457.0,451.0,444.0,434.0,428.0
58,468.0,462.0,456.0,450.0,445.0,438.0
59,468.0,463.0,457.0,451.0,441.0,434.0
60,464.0,462.0,458.0,454.0,451.0,444.0
61,470.0,464.0,458.0,453.0,445.0,439.0
62,465.0,463.0,459.0,455.0,453.0,447.0
63,472.0,465.0,459.0,454.0,447.0,441.0
64,474.0,469.0,463.0,458.0,454.0,448.0
65,477.0,471.0,464.0,459.0,450.0,444.0
66,477.0,473.0,467.0,463.0,459.0,453.0
67,477.0,472.0,466.0,461.0,453.0,447.0
68,483.0,478.0,472.0,466.0,463.0,456.0
69,486.0,480.0,473.0,467.0,458.0,451.0
70,484.0,481.0,476.0,471.0,467.0,461.0
71,489.0,483.0,477.0,471.0,463.0,456.0
72,489.0,485.0,480.0,475.0,471.0,465.0
73,488.0,483.0,478.0,473.0,465.0,459.0
74,494.0,488.0,482.0,477.0,474.0,468.0
75,497.0,491.0,484.0,478.0,469.0,463.0
76,497.0,493.0,487.0,483.0,480.0,474.0
77,497.0,492.0,487.0,481.0,474.0,468.0
78,500.0,495.0,490.0,485.0,482.0,476.0
79,500.0,494.0,489.0,484.0,476.0,470.0
80,501.0,496.0,491.0,487.0,484.0,479.0
81,498.0,493.0,489.0,484.0,477.0,472.0
82,500.0,495.0,491.0,487.0,485.0,480.0
83,497.0,492.0,488.0,483.0,477.0,472.0
84,500.0,495.0,490.0,486.0,484.0,479.0
85,501.0,496.0,490.0,485.0,477.0,473.0
86,500.0,496.0,492.0,487.0,485.0,480.0
87,497.0,493.0,489.0,484.0,477.0,473.0
88,499.0,495.0,490.0,486.0,483.0,479.0
89,504.0,497.0,491.0,485.0,477.0,472.0
90,505.0,500.0,495.0,490.0,486.0,481.0
91,500.0,497.0,492.0,487.0,480.0,474.0
92,506.0,501.0,495.0,491.0,488.0,482.0
93,505.0,500.0,495.0,489.0,481.0,476.0
94,505.0,501.0,497.0,492.0,490.0,484.0
95,507.0,501.0,496.0,491.0,483.0,478.0
96,504.0,501.0,497.0,493.0,491.0,486.0
97,508.0,502.0,496.0,491.0,484.0,479.0
98,508.0,504.0,499.0,495.0,492.0,487.0
99,512.0,506.0,500.0,494.0,486.0,480.0
100,511.0,507.0,502.0,498.0,496.0,490.0
101,512.0,507.0,501.0,496.0,489.0,484.0
102,511.0,507.0,503.0,499.0,496.0,491.0
103,509.0,505.0,500.0,496.0,489.0,484.0
104,509.0,506.0,501.0,497.0,496.0,491.0
105,514.0,508.0,502.0,496.0,489.0,484.0
106,512.0,508.0,503.0,499.0,497.0,492.0
107,516.0,509.0,503.0,498.0,490.0,485.0
108,512.0,509.0,504.0,500.0,498.0,493.0
109,515.0,510.0,504.0,499.0,491.0,486.0
110,520.0,515.0,509.0,504.0,500.0,495.0
111,523.0,516.0,509.0,503.0,495.0,489.0
112,530.0,523.0,516.0,509.0,503.0,497.0
113,540.0,531.0,522.0,514.0,501.0,493.0
114,543.0,537.0,529.0,522.0,514.0,505.0
115,551.0,543.0,534.0,526.0,513.0,503.0
116,551.0,546.0,539.0,533.0,526.0,516.0
117,540.0,537.0,534.0,530.0,520.0,512.0
118,532.0,532.0,530.0,528.0,526.0,520.0
119,532.0,528.0,525.0,522.0,517.0,512.0
120,536.0,532.0,527.0,523.0,523.0,519.0
121,532.0,528.0,524.0,519.0,514.0,510.0
122,530.0,528.0,524.0,520.0,520.0,516.0
123,526.0,523.0,519.0,515.0,510.0,507.0
124,520.0,519.0,516.0,514.0,516.0,513.0
125,507.0,507.0,506.0,505.0,503.0,502.0
126,492.0,495.0,496.0,497.0,502.0,503.0
127,490.0,488.0,487.0,486.0,487.0,489.0
128,489.0,487.0,484.0,483.0,487.0,489.0
129,489.0,485.0,481.0,477.0,475.0,477.0
130,494.0,489.0,484.0,480.0,480.0,480.0
131,495.0,489.0,483.0,478.0,472.0,471.0
132,492.0,489.0,485.0,480.0,479.0,476.0
133,490.0,486.0,482.0,477.0,471.0,468.0
134,487.0,484.0,481.0,478.0,477.0,474.0
135,492.0,486.0,480.0,476.0,470.0,466.0
136,491.0,487.0,482.0,478.0,475.0,472.0
137,490.0,486.0,481.0,476.0,469.0,464.0
138,488.0,485.0,481.0,478.0,476.0,471.0
139,492.0,486.0,481.0,476.0,469.0,464.0
140,493.0,488.0,483.0,479.0,477.0,472.0
141,491.0,487.0,482.0,477.0,470.0,465.0
142,490.0,487.0,483.0,479.0,477.0,472.0
143,477.0,476.0,474.0,472.0,467.0,464.0
144,445.0,453.0,458.0,460.0,466.0,466.0
145,432.0,436.0,439.0,442.0,447.0,451.0
146,460.0,451.0,445.0,442.0,448.0,451.0
147,516.0,491.0,472.0,458.0,447.0,444.0
148,587.0,555.0,526.0,502.0,479.0,465.0
149,733.0,671.0,620.0,577.0,522.0,490.0
150,859.0,795.0,735.0,681.0,605.0,552.0
151,960.0,899.0,841.0,784.0,688.0,616.0
152,1000.0,961.0,918.0,870.0,782.0,701.0
153,932.0,935.0,924.0,900.0,832.0,758.0
154,822.0,857.0,876.0,882.0,858.0,805.0
155,681.0,733.0,776.0,807.0,823.0,802.0
156,504.0,578.0,639.0,693.0,758.0,776.0
157,474.0,505.0,544.0,589.0,665.0,709.0
158,487.0,491.0,504.0,529.0,599.0,653.0
159,496.0,490.0,489.0,497.0,540.0,590.0
160,478.0,479.0,479.0,482.0,511.0,553.0
161,470.0,469.0,468.0,468.0,481.0,512.0
162,466.0,465.0,463.0,462.0,474.0,496.0
163,463.0,460.0,457.0,455.0,457.0,471.0
164,460.0,458.0,456.0,453.0,457.0,467.0
165,461.0,456.0,452.0,449.0,446.0,452.0
166,463.0,459.0,454.0,451.0,451.0,454.0
167,468.0,461.0,455.0,450.0,444.0,443.0
168,466.0,463.0,458.0,454.0,452.0,449.0
169,470.0,465.0,459.0,454.0,446.0,442.0
170,477.0,471.0,465.0,460.0,456.0,451.0
171,477.0,472.0,466.0,460.0,451.0,446.0
172,484.0,478.0,472.0,466.0,463.0,457.0
173,489.0,482.0,475.0,468.0,459.0,452.0
174,496.0,489.0,482.0,476.0,471.0,463.0
175,498.0,491.0,484.0,478.0,468.0,460.0
176,501.0,496.0,490.0,484.0,479.0,471.0
177,505.0,498.0,492.0,485.0,475.0,467.0
178,511.0,505.0,498.0,492.0,487.0,478.0
179,512.0,506.0,499.0,493.0,483.0,475.0
180,515.0,510.0,504.0,499.0,494.0,486.0
181,517.0,511.0,505.0,499.0,489.0,482.0
182,524.0,518.0,511.0,505.0,500.0,492.0
183,530.0,522.0,515.0,507.0,497.0,488.0
184,532.0,527.0,520.0,514.0,507.0,498.0
185,536.0,529.0,523.0,516.0,504.0,495.0
186,542.0,536.0,529.0,523.0,516.0,507.0
187,543.0,537.0,530.0,524.0,513.0,504.0
188,554.0,546.0,538.0,532.0,525.0,516.0
189,561.0,552.0,544.0,536.0,523.0,514.0
190,569.0,561.0,553.0,545.0,537.0,527.0
191,572.0,565.0,557.0,549.0,536.0,525.0
192,579.0,572.0,564.0,557.0,549.0,538.0
193,588.0,579.0,570.0,562.0,548.0,537.0
194,594.0,587.0,579.0,572.0,562.0,551.0
195,597.0,590.0,583.0,575.0,561.0,550.0
196,599.0,594.0,588.0,582.0,575.0,565.0
197,606.0,598.0,591.0,584.0,572.0,562.0
198,606.0,601.0,595.0,589.0,583.0,574.0
199,608.0,602.0,596.0,590.0,579.0,570.0
200,608.0,604.0,599.0,594.0,589.0,581.0
201,605.0,601.0,596.0,591.0,582.0,575.0
202,597.0,595.0,593.0,590.0,588.0,583.0
203,591.0,589.0,586.0,583.0,578.0,574.0
204,577.0,578.0,578.0,578.0,580.0,578.0
205,569.0,568.0,567.0,567.0,566.0,566.0
206,555.0,557.0,557.0,558.0,564.0,566.0
207,538.0,540.0,541.0,543.0,546.0,549.0
208,518.0,523.0,526.0,529.0,538.0,544.0
209,499.0,503.0,506.0,509.0,516.0,524.0
210,485.0,489.0,492.0,496.0,508.0,518.0
211,478.0,478.0,479.0,480.0,487.0,496.0
212,469.0,470.0,470.0,471.0,482.0,490.0
213,460.0,460.0,459.0,459.0,463.0,471.0
214,452.0,453.0,452.0,452.0,460.0,468.0
215,444.0,443.0,442.0,442.0,444.0,450.0
216,441.0,440.0,438.0,437.0,443.0,449.0
217,439.0,436.0,433.0,431.0,430.0,434.0
218,439.0,436.0,433.0,430.0,433.0,435.0
219,439.0,435.0,431.0,427.0,423.0,424.0
220,442.0,438.0,434.0,430.0,431.0,430.0
221,441.0,437.0,432.0,428.0,423.0,421.0
222,441.0,438.0,434.0,430.0,429.0,427.0
223,442.0,437.0,432.0,428.0,422.0,419.0
224,446.0,441.0,436.0,432.0,430.0,426.0
225,447.0,442.0,436.0,431.0,424.0,420.0
226,448.0,444.0,439.0,435.0,432.0,428.0
227,450.0,444.0,439.0,434.0,427.0,422.0
228,453.0,448.0,443.0,438.0,435.0,430.0
229,452.0,447.0,442.0,437.0,430.0,424.0
230,450.0,447.0,443.0,440.0,438.0,433.0
231,453.0,448.0,443.0,438.0,431.0,426.0
232,456.0,452.0,446.0,442.0,438.0,433.0
233,461.0,455.0,448.0,442.0,433.0,428.0
234,465.0,460.0,454.0,448.0,444.0,437.0
235,467.0,461.0,455.0,449.0,440.0,433.0
236,469.0,465.0,459.0,454.0,450.0,443.0
237,472.0,466.0,460.0,454.0,445.0,438.0
238,474.0,469.0,464.0,459.0,455.0,448.0
239,476.0,470.0,464.0,459.0,450.0,443.0
240,479.0,474.0,469.0,464.0,460.0,453.0
241,483.0,476.0,470.0,464.0,455.0,448.0
242,481.0,477.0,473.0,468.0,464.0,458.0
243,483.0,478.0,472.0,467.0,459.0,452.0
244,482.0,478.0,474.0,470.0,468.0,462.0
245,487.0,480.0,474.0,469.0,462.0,457.0
246,490.0,484.0,479.0,474.0,471.0,465.0
247,490.0,485.0,479.0,473.0,465.0,459.0
248,493.0,488.0,483.0,478.0,474.0,468.0
249,491.0,487.0,481.0,476.0,468.0,462.0
250,496.0,491.0,485.0,481.0,477.0,471.0
251,499.0,492.0,486.0,480.0,472.0,466.0
252,496.0,492.0,488.0,483.0,480.0,474.0
253,497.0,491.0,486.0,481.0,473.0,468.0
254,498.0,494.0,489.0,484.0,482.0,476.0
255,497.0,491.0,487.0,482.0,475.0,470.0
0,497.0,493.0,488.0,484.0,481.0,476.0
1,495.0,490.0,485.0,481.0,474.0,469.0
2,495.0,492.0,487.0,483.0,481.0,476.0
3,496.0,491.0,486.0,481.0,474.0,469.0
4,496.0,492.0,488.0,484.0,482.0,477.0
5,496.0,491.0,486.0,481.0,474.0,470.0
6,494.0,491.0,487.0,483.0,481.0,477.0
7,495.0,490.0,485.0,480.0,473.0,469.0
8,491.0,489.0,485.0,482.0,480.0,476.0
9,490.0,486.0,482.0,478.0,472.0,468.0
10,491.0,488.0,483.0,480.0,478.0,475.0
11,492.0,487.0,482.0,477.0,471.0,467.0
12,492.0,489.0,484.0,480.0,479.0,475.0
13,497.0,491.0,485.0,479.0,472.0,468.0
14,493.0,491.0,486.0,482.0,480.0,476.0
15,492.0,488.0,483.0,479.0,472.0,468.0
16,496.0,492.0,486.0,482.0,480.0,475.0
17,497.0,492.0,486.0,481.0,473.0,469.0
18,495.0,492.0,488.0,483.0,481.0,476.0
19,497.0,492.0,487.0,482.0,474.0,470.0
20,494.0,491.0,487.0,483.0,481.0,477.0
21,499.0,493.0,487.0,482.0,474.0,470.0
22,504.0,498.0,492.0,487.0,483.0,478.0
23,504.0,498.0,492.0,487.0,478.0,472.0
24,509.0,503.0,497.0,492.0,486.0,480.0
25,513.0,506.0,499.0,493.0,482.0,476.0
26,523.0,515.0,507.0,501.0,494.0,486.0
27,528.0,520.0,512.0,504.0,492.0,483.0
28,528.0,523.0,517.0,511.0,504.0,495.0
29,529.0,523.0,517.0,511.0,500.0,492.0
30,536.0,530.0,523.0,517.0,511.0,503.0
31,538.0,532.0,525.0,518.0,507.0,499.0
32,530.0,529.0,525.0,521.0,516.0,509.0
33,522.0,520.0,518.0,515.0,508.0,502.0
34,523.0,520.0,517.0,514.0,514.0,510.0
35,528.0,522.0,516.0,512.0,505.0,501.0
36,526.0,522.0,518.0,514.0,513.0,509.0
37,526.0,521.0,516.0,511.0,505.0,501.0
38,519.0,517.0,514.0,511.0,510.0,507.0
39,510.0,509.0,507.0,504.0,500.0,498.0
40,497.0,498.0,499.0,498.0,501.0,501.0
41,483.0,484.0,485.0,485.0,486.0,487.0
42,478.0,478.0,478.0,478.0,484.0,487.0
43,479.0,475.0,472.0,470.0,470.0,473.0
44,478.0,475.0,472.0,469.0,472.0,474.0
45,480.0,475.0,470.0,466.0,462.0,463.0
46,482.0,478.0,473.0,469.0,468.0,467.0
47,483.0,478.0,472.0,467.0,460.0,458.0
48,479.0,477.0,473.0,469.0,466.0,463.0
49,484.0,478.0,473.0,468.0,460.0,456.0
50,483.0,479.0,475.0,471.0,468.0,464.0
51,479.0,476.0,472.0,467.0,460.0,456.0
52,481.0,477.0,473.0,469.0,467.0,463.0
53,481.0,477.0,472.0,467.0,460.0,456.0
54,479.0,477.0,473.0,469.0,467.0,463.0
55,479.0,475.0,470.0,466.0,460.0,456.0
56,480.0,476.0,472.0,468.0,466.0,463.0
57,477.0,473.0,469.0,465.0,458.0,455.0
58,456.0,459.0,460.0,460.0,461.0,460.0
59,425.0,433.0,438.0,441.0,444.0,446.0
60,425.0,426.0,428.0,431.0,441.0,446.0
61,477.0,457.0,444.0,436.0,432.0,434.0
62,529.0,504.0,482.0,465.0,452.0,446.0
63,648.0,598.0,556.0,523.0,481.0,460.0
64,774.0,714.0,661.0,613.0,551.0,510.0
65,888.0,826.0,768.0,713.0,626.0,565.0
66,998.0,936.0,878.0,820.0,726.0,649.0
67,1017.0,982.0,942.0,895.0,803.0,720.0
68,948.0,954.0,946.0,925.0,865.0,792.0
69,827.0,864.0,886.0,895.0,871.0,820.0
70,641.0,711.0,765.0,807.0,839.0,825.0
71,495.0,563.0,624.0,680.0,750.0,775.0
72,489.0,512.0,545.0,587.0,669.0,718.0
73,485.0,489.0,502.0,525.0,588.0,646.0
74,465.0,471.0,477.0,489.0,540.0,595.0
75,461.0,460.0,461.0,465.0,494.0,540.0
76,452.0,453.0,453.0,454.0,475.0,510.0
77,444.0,444.0,443.0,442.0,451.0,476.0
78,440.0,439.0,438.0,437.0,446.0,464.0
79,441.0,437.0,434.0,431.0,431.0,443.0
80,440.0,437.0,434.0,431.0,434.0,441.0
81,442.0,437.0,433.0,429.0,424.0,428.0
82,446.0,441.0,436.0,432.0,431.0,432.0
83,453.0,446.0,439.0,433.0,425.0,424.0
84,451.0,448.0,443.0,438.0,436.0,433.0
85,462.0,454.0,447.0,440.0,431.0,427.0
86,463.0,458.0,452.0,446.0,442.0,436.0
87,468.0,461.0,455.0,448.0,438.0,432.0
88,470.0,465.0,460.0,454.0,449.0,443.0
89,477.0,470.0,463.0,456.0,446.0,439.0
90,478.0,473.0,468.0,462.0,457.0,450.0
91,483.0,476.0,470.0,464.0,453.0,446.0
92,488.0,482.0,476.0,470.0,464.0,457.0
93,494.0,486.0,479.0,472.0,462.0,454.0
94,498.0,492.0,485.0,479.0,473.0,465.0
95,502.0,495.0,488.0,481.0,470.0,462.0
96,504.0,499.0,493.0,487.0,480.0,472.0
97,509.0,503.0,496.0,489.0,477.0,469.0
98,514.0,508.0,502.0,496.0,489.0,481.0
99,518.0,511.0,504.0,497.0,486.0,478.0
100,522.0,516.0,509.0,504.0,497.0,489.0
101,528.0,520.0,513.0,506.0,494.0,486.0
102,534.0,527.0,520.0,513.0,506.0,498.0
103,541.0,532.0,524.0,517.0,504.0,495.0
104,547.0,540.0,532.0,525.0,518.0,508.0
105,554.0,546.0,537.0,529.0,516.0,506.0
106,560.0,553.0,545.0,538.0,529.0,519.0
107,570.0,560.0,551.0,543.0,529.0,518.0
108,576.0,568.0,560.0,553.0,544.0,534.0
109,582.0,574.0,566.0,557.0,544.0,533.0
110,589.0,582.0,574.0,566.0,558.0,547.0
111,593.0,586.0,578.0,570.0,556.0,545.0
112,596.0,590.0,584.0,577.0,569.0,559.0
113,597.0,591.0,584.0,578.0,566.0,556.0
114,598.0,594.0,588.0,583.0,577.0,568.0
115,597.0,592.0,587.0,581.0,571.0,564.0
116,593.0,590.0,587.0,583.0,579.0,573.0
117,589.0,586.0,582.0,578.0,571.0,566.0
118,583.0,581.0,579.0,576.0,576.0,572.0
119,570.0,569.0,568.0,567.0,564.0,562.0
120,555.0,557.0,558.0,558.0,562.0,562.0
121,539.0,541.0,542.0,543.0,545.0,547.0
122,522.0,526.0,529.0,531.0,540.0,545.0
123,507.0,510.0,512.0,514.0,520.0,526.0
124,494.0,497.0,499.0,502.0,513.0,521.0
125,484.0,485.0,485.0,487.0,492.0,501.0
126,471.0,473.0,475.0,477.0,487.0,495.0
127,462.0,462.0,462.0,463.0,467.0,476.0
128,452.0,454.0,454.0,455.0,464.0,472.0
129,449.0,447.0,445.0,445.0,447.0,454.0
130,442.0,442.0,441.0,440.0,446.0,452.0
131,438.0,436.0,434.0,432.0,432.0,437.0
132,435.0,433.0,431.0,430.0,434.0,438.0
133,434.0,430.0,427.0,424.0,422.0,425.0
134,432.0,430.0,427.0,424.0,426.0,428.0
135,436.0,431.0,426.0,422.0,417.0,417.0
136,438.0,434.0,429.0,425.0,424.0,423.0
137,441.0,435.0,429.0,424.0,417.0,415.0
138,441.0,437.0,432.0,428.0,425.0,422.0
139,442.0,437.0,432.0,427.0,420.0,416.0
140,444.0,440.0,435.0,431.0,428.0,424.0
141,450.0,443.0,437.0,431.0,423.0,418.0
142,451.0,447.0,441.0,436.0,432.0,427.0
143,453.0,447.0,442.0,436.0,427.0,422.0
144,454.0,450.0,445.0,440.0,436.0,430.0
145,456.0,451.0,445.0,440.0,431.0,425.0
146,458.0,454.0,449.0,444.0,440.0,434.0
147,460.0,455.0,449.0,444.0,435.0,429.0
148,463.0,459.0,453.0,448.0,445.0,439.0
149,463.0,458.0,453.0,448.0,439.0,434.0
150,466.0,461.0,456.0,452.0,448.0,443.0
151,470.0,463.0,457.0,452.0,443.0,437.0
152,468.0,465.0,460.0,455.0,452.0,446.0
153,474.0,468.0,461.0,456.0,447.0,441.0
154,473.0,470.0,465.0,460.0,456.0,450.0
155,479.0,473.0,466.0,460.0,451.0,445.0
156,483.0,478.0,472.0,466.0,463.0,456.0
157,485.0,479.0,473.0,467.0,458.0,451.0
158,485.0,481.0,476.0,471.0,467.0,461.0
159,484.0,479.0,474.0,469.0,461.0,456.0
160,486.0,482.0,477.0,473.0,470.0,464.0
161,489.0,483.0,477.0,472.0,464.0,458.0
162,489.0,485.0,480.0,475.0,472.0,467.0
163,492.0,486.0,480.0,475.0,466.0,461.0
164,493.0,489.0,484.0,479.0,475.0,470.0
165,495.0,489.0,483.0,478.0,469.0,464.0
166,493.0,489.0,485.0,481.0,478.0,472.0
167,495.0,490.0,484.0,479.0,471.0,466.0
168,499.0,494.0,488.0,483.0,479.0,473.0
169,498.0,493.0,487.0,482.0,473.0,468.0
170,499.0,495.0,490.0,485.0,482.0,476.0
171,497.0,493.0,488.0,483.0,475.0,470.0
172,501.0,496.0,491.0,486.0,483.0,478.0
173,501.0,496.0,490.0,485.0,477.0,472.0
174,501.0,498.0,493.0,488.0,485.0,480.0
175,502.0,497.0,492.0,487.0,479.0,474.0
176,499.0,496.0,492.0,488.0,486.0,481.0
177,500.0,495.0,490.0,485.0,478.0,474.0
178,497.0,494.0,490.0,487.0,485.0,481.0
179,495.0,491.0,487.0,483.0,477.0,473.0
180,499.0,495.0,490.0,486.0,485.0,482.0
181,498.0,494.0,488.0,483.0,477.0,474.0
182,501.0,496.0,491.0,486.0,484.0,481.0
183,495.0,492.0,488.0,483.0,477.0,473.0
184,498.0,494.0,490.0,486.0,484.0,480.0
185,501.0,495.0,489.0,484.0,477.0,473.0
186,501.0,497.0,492.0,487.0,484.0,480.0
187,497.0,493.0,489.0,484.0,477.0,473.0
188,497.0,494.0,490.0,486.0,484.0,480.0
189,500.0,495.0,489.0,484.0,477.0,473.0
190,495.0,493.0,489.0,486.0,484.0,480.0
191,497.0,493.0,488.0,483.0,476.0,473.0
192,501.0,496.0,491.0,486.0,482.0,478.0
193,502.0,496.0,491.0,485.0,477.0,472.0
194,503.0,499.0,494.0,489.0,485.0,480.0
195,506.0,500.0,494.0,488.0,480.0,474.0
196,511.0,505.0,499.0,493.0,489.0,483.0
197,518.0,510.0,503.0,495.0,485.0,479.0
198,522.0,516.0,509.0,502.0,496.0,489.0
199,530.0,521.0,513.0,506.0,494.0,486.0
200,539.0,531.0,523.0,515.0,507.0,498.0
201,546.0,537.0,528.0,520.0,506.0,497.0
202,546.0,541.0,534.0,527.0,519.0,509.0
203,547.0,541.0,535.0,528.0,517.0,507.0
204,546.0,542.0,538.0,533.0,529.0,520.0
205,536.0,534.0,531.0,527.0,521.0,514.0
206,529.0,528.0,526.0,525.0,525.0,521.0
207,533.0,528.0,524.0,520.0,515.0,512.0
208,532.0,529.0,525.0,521.0,521.0,518.0
209,534.0,528.0,523.0,518.0,512.0,509.0
210,529.0,526.0,523.0,519.0,518.0,515.0
211,518.0,517.0,515.0,512.0,507.0,505.0
212,510.0,510.0,509.0,508.0,510.0,509.0
213,496.0,497.0,497.0,496.0,496.0,496.0
214,484.0,486.0,487.0,488.0,494.0,497.0
215,486.0,483.0,481.0,479.0,479.0,482.0
216,485.0,482.0,479.0,477.0,479.0,482.0
217,486.0,481.0,477.0,473.0,469.0,470.0
218,486.0,482.0,478.0,474.0,474.0,474.0
219,487.0,482.0,477.0,472.0,466.0,464.0
220,485.0,482.0,478.0,474.0,473.0,470.0
221,486.0,481.0,476.0,471.0,465.0,462.0
222,487.0,483.0,478.0,474.0,472.0,469.0
223,488.0,483.0,478.0,473.0,465.0,461.0
224,485.0,482.0,479.0,475.0,473.0,469.0
225,487.0,482.0,477.0,472.0,466.0,462.0
226,487.0,483.0,479.0,475.0,473.0,469.0
227,487.0,482.0,477.0,472.0,465.0,462.0
228,487.0,483.0,479.0,475.0,474.0,470.0
229,486.0,482.0,477.0,472.0,466.0,463.0
230,484.0,481.0,477.0,474.0,473.0,469.0
231,461.0,464.0,464.0,463.0,461.0,459.0
232,430.0,439.0,445.0,449.0,457.0,459.0
233,430.0,430.0,432.0,434.0,438.0,443.0
234,487.0,467.0,453.0,445.0,445.0,446.0
235,549.0,519.0,494.0,474.0,453.0,445.0
236,664.0,615.0,573.0,539.0,499.0,476.0
237,792.0,730.0,675.0,626.0,557.0,513.0
238,911.0,849.0,790.0,734.0,649.0,585.0
239,1018.0,954.0,894.0,836.0,736.0,657.0
240,1018.0,990.0,953.0,910.0,824.0,741.0
241,976.0,973.0,960.0,938.0,872.0,798.0
242,851.0,887.0,908.0,915.0,894.0,842.0
243,654.0,726.0,781.0,821.0,848.0,832.0
244,499.0,573.0,638.0,697.0,774.0,798.0
245,504.0,524.0,556.0,598.0,677.0,727.0
246,491.0,498.0,513.0,538.0,609.0,668.0
247,477.0,479.0,485.0,496.0,544.0,600.0
248,467.0,469.0,471.0,476.0,511.0,558.0
249,457.0,458.0,458.0,459.0,477.0,513.0
250,449.0,450.0,450.0,450.0,465.0,492.0
251,444.0,443.0,442.0,440.0,445.0,464.0
252,443.0,441.0,439.0,437.0,445.0,458.0
253,443.0,439.0,436.0,432.0,432.0,440.0
254,447.0,443.0,438.0,434.0,436.0,441.0
255,454.0,447.0,441.0,435.0,429.0,430.0
0,457.0,452.0,446.0,440.0,438.0,436.0
1,459.0,453.0,447.0,441.0,433.0,429.0
2,465.0,459.0,453.0,448.0,443.0,439.0
3,469.0,463.0,456.0,450.0,440.0,434.0
4,471.0,467.0,461.0,455.0,451.0,444.0
5,475.0,469.0,463.0,457.0,447.0,440.0
6,480.0,474.0,468.0,463.0,458.0,451.0
7,488.0,480.0,472.0,465.0,455.0,447.0
8,491.0,485.0,479.0,472.0,466.0,458.0
9,495.0,489.0,482.0,475.0,463.0,455.0
10,498.0,493.0,487.0,481.0,475.0,467.0
11,503.0,495.0,489.0,482.0,472.0,464.0
12,507.0,501.0,495.0,489.0,483.0,475.0
13,514.0,506.0,499.0,492.0,481.0,472.0
14,519.0,512.0,505.0,499.0,493.0,484.0
15,525.0,517.0,509.0,502.0,490.0,481.0
16,529.0,523.0,516.0,509.0,502.0,494.0
17,533.0,526.0,519.0,512.0,500.0,491.0
18,535.0,530.0,524.0,518.0,512.0,503.0
19,544.0,535.0,528.0,521.0,509.0,500.0
20,553.0,546.0,537.0,530.0,523.0,514.0
21,556.0,549.0,541.0,533.0,521.0,511.0
22,561.0,555.0,548.0,541.0,534.0,524.0
23,570.0,561.0,553.0,545.0,532.0,522.0
24,578.0,570.0,562.0,554.0,546.0,535.0
25,582.0,575.0,566.0,558.0,545.0,534.0
26,588.0,581.0,574.0,567.0,558.0,548.0
27,594.0,585.0,578.0,570.0,557.0,546.0
28,596.0,590.0,583.0,577.0,570.0,559.0
29,603.0,594.0,587.0,579.0,567.0,557.0
30,602.0,597.0,591.0,585.0,579.0,569.0
31,604.0,598.0,591.0,585.0,574.0,566.0
32,604.0,599.0,594.0,589.0,583.0,575.0
33,598.0,594.0,590.0,586.0,577.0,570.0
34,597.0,594.0,590.0,586.0,584.0,578.0
35,587.0,585.0,583.0,580.0,574.0,570.0
36,580.0,579.0,577.0,576.0,577.0,575.0
37,565.0,566.0,565.0,564.0,563.0,563.0
38,551.0,554.0,555.0,556.0,562.0,564.0
39,528.0,533.0,536.0,538.0,542.0,547.0
40,512.0,517.0,520.0,524.0,535.0,542.0
41,499.0,501.0,503.0,506.0,513.0,521.0
42,485.0,488.0,490.0,493.0,505.0,515.0
43,469.0,472.0,474.0,476.0,483.0,493.0
44,462.0,463.0,464.0,466.0,479.0,488.0
45,455.0,454.0,454.0,454.0,459.0,468.0
46,448.0,448.0,447.0,447.0,456.0,464.0
47,443.0,441.0,439.0,438.0,440.0,447.0
48,438.0,438.0,436.0,435.0,440.0,446.0
49,438.0,434.0,431.0,428.0,427.0,431.0
50,436.0,433.0,430.0,428.0,430.0,433.0
51,435.0,431.0,427.0,424.0,420.0,421.0
52,436.0,433.0,429.0,425.0,426.0,426.0
53,436.0,432.0,428.0,423.0,418.0,417.0
54,437.0,433.0,429.0,425.0,425.0,423.0
55,441.0,435.0,429.0,424.0,418.0,415.0
56,442.0,437.0,432.0,428.0,425.0,421.0
57,446.0,440.0,434.0,428.0,420.0,415.0
58,449.0,444.0,438.0,433.0,430.0,425.0
59,450.0,445.0,439.0,433.0,425.0,419.0
60,450.0,446.0,442.0,437.0,434.0,428.0
61,454.0,448.0,442.0,437.0,429.0,423.0
62,458.0,453.0,447.0,442.0,439.0,433.0
63,459.0,454.0,448.0,442.0,434.0,428.0
64,460.0,456.0,451.0,446.0,443.0,437.0
65,465.0,459.0,453.0,447.0,438.0,432.0
66,464.0,460.0,455.0,451.0,447.0,441.0
67,466.0,461.0,455.0,450.0,442.0,436.0
68,470.0,465.0,460.0,455.0,453.0,447.0
69,472.0,466.0,460.0,455.0,447.0,441.0
70,474.0,469.0,464.0,459.0,456.0,450.0
71,473.0,468.0,463.0,458.0,450.0,444.0
72,474.0,470.0,466.0,461.0,459.0,453.0
73,473.0,469.0,464.0,459.0,452.0,447.0
74,475.0,471.0,466.0,462.0,460.0,455.0
75,479.0,472.0,467.0,461.0,454.0,449.0
76,484.0,478.0,472.0,466.0,463.0,458.0
77,487.0,481.0,474.0,468.0,459.0,453.0
78,488.0,483.0,478.0,473.0,469.0,462.0
79,486.0,481.0,477.0,471.0,463.0,457.0
80,488.0,484.0,479.0,474.0,470.0,464.0
81,493.0,486.0,480.0,474.0,465.0,459.0
82,496.0,490.0,484.0,479.0,475.0,469.0
83,497.0,491.0,485.0,479.0,470.0,464.0
84,495.0,491.0,487.0,482.0,479.0,473.0
85,495.0,490.0,485.0,480.0,473.0,467.0
86,498.0,493.0,488.0,483.0,481.0,475.0
87,499.0,493.0,488.0,482.0,475.0,469.0
88,499.0,495.0,490.0,486.0,483.0,478.0
89,501.0,495.0,490.0,484.0,477.0,471.0
90,498.0,495.0,491.0,487.0,484.0,479.0
91,500.0,495.0,490.0,485.0,477.0,473.0
92,499.0,496.0,491.0,487.0,486.0,482.0
93,495.0,492.0,488.0,484.0,478.0,474.0
94,494.0,491.0,488.0,484.0,484.0,481.0
95,495.0,490.0,485.0,481.0,475.0,472.0
96,495.0,491.0,487.0,483.0,482.0,479.0
97,497.0,492.0,486.0,481.0,475.0,471.0
98,497.0,493.0,488.0,484.0,482.0,478.0
99,499.0,493.0,488.0,482.0,475.0,471.0
100,497.0,494.0,489.0,485.0,483.0,479.0
101,498.0,493.0,488.0,483.0,476.0,471.0
102,499.0,495.0,490.0,486.0,484.0,479.0
103,499.0,494.0,489.0,484.0,477.0,472.0
104,500.0,496.0,491.0,487.0,483.0,479.0
105,500.0,495.0,490.0,485.0,477.0,472.0
106,503.0,499.0,493.0,488.0,485.0,480.0
107,505.0,499.0,493.0,488.0,480.0,474.0
108,504.0,500.0,495.0,491.0,488.0,483.0
109,503.0,498.0,493.0,489.0,481.0,476.0
110,505.0,501.0,496.0,491.0,489.0,484.0
111,508.0,502.0,496.0,491.0,483.0,478.0
112,507.0,503.0,498.0,494.0,491.0,486.0
113,505.0,501.0,496.0,491.0,484.0,479.0
114,508.0,503.0,499.0,494.0,492.0,487.0
115,505.0,501.0,496.0,491.0,485.0,480.0
116,507.0,503.0,498.0,494.0,493.0,489.0
117,506.0,502.0,497.0,492.0,486.0,482.0
118,506.0,503.0,498.0,494.0,493.0,489.0
119,508.0,503.0,497.0,492.0,485.0,481.0
120,507.0,503.0,499.0,495.0,493.0,489.0
121,507.0,502.0,497.0,492.0,485.0,481.0
122,505.0,502.0,498.0,494.0,493.0,489.0
123,505.0,501.0,496.0,491.0,485.0,481.0
124,507.0,503.0,498.0,494.0,492.0,488.0
125,510.0,504.0,498.0,493.0,485.0,481.0
126,511.0,507.0,501.0,496.0,493.0,489.0
127,510.0,505.0,500.0,495.0,487.0,482.0
128,516.0,510.0,504.0,499.0,495.0,490.0
129,517.0,511.0,505.0,499.0,490.0,484.0
130,524.0,518.0,511.0,505.0,500.0,494.0
131,533.0,525.0,516.0,508.0,497.0,490.0
132,541.0,534.0,526.0,518.0,510.0,502.0
133,545.0,538.0,530.0,522.0,509.0,500.0
134,550.0,544.0,536.0,530.0,522.0,513.0
135,550.0,544.0,537.0,531.0,519.0,510.0
136,541.0,539.0,536.0,532.0,528.0,521.0
137,530.0,529.0,527.0,525.0,520.0,514.0
138,528.0,526.0,524.0,523.0,524.0,520.0
139,533.0,527.0,522.0,518.0,514.0,511.0
140,534.0,530.0,525.0,521.0,521.0,518.0
141,535.0,530.0,524.0,519.0,513.0,510.0
142,524.0,524.0,521.0,518.0,518.0,515.0
143,521.0,518.0,515.0,512.0,508.0,506.0
144,509.0,510.0,509.0,508.0,510.0,509.0
145,493.0,495.0,495.0,495.0,495.0,496.0
146,497.0,496.0,494.0,494.0,499.0,501.0
147,499.0,495.0,490.0,487.0,486.0,487.0
148,498.0,496.0,492.0,489.0,490.0,491.0
149,497.0,493.0,488.0,484.0,479.0,478.0
150,490.0,488.0,485.0,483.0,483.0,482.0
151,487.0,484.0,481.0,477.0,473.0,472.0
152,492.0,487.0,483.0,479.0,478.0,476.0
153,490.0,485.0,481.0,476.0,470.0,468.0
154,490.0,486.0,482.0,478.0,477.0,474.0
155,493.0,487.0,481.0,477.0,470.0,466.0
156,491.0,488.0,483.0,479.0,477.0,474.0
157,493.0,488.0,483.0,478.0,471.0,467.0
158,494.0,490.0,485.0,481.0,479.0,475.0
159,493.0,489.0,484.0,479.0,472.0,467.0
160,491.0,489.0,484.0,481.0,479.0,475.0
161,494.0,488.0,483.0,478.0,472.0,467.0
162,485.0,484.0,481.0,478.0,478.0,474.0
163,467.0,469.0,469.0,468.0,466.0,464.0
164,440.0,448.0,452.0,456.0,465.0,466.0
165,436.0,437.0,438.0,440.0,445.0,450.0
166,482.0,466.0,455.0,448.0,450.0,452.0
167,533.0,508.0,487.0,470.0,454.0,448.0
168,637.0,594.0,557.0,527.0,494.0,475.0
169,769.0,708.0,655.0,609.0,545.0,507.0
170,883.0,822.0,765.0,712.0,632.0,574.0
171,1004.0,937.0,875.0,817.0,718.0,642.0
172,1018.0,984.0,944.0,898.0,811.0,728.0
173,991.0,982.0,963.0,936.0,865.0,789.0
174,880.0,911.0,925.0,926.0,896.0,839.0
175,706.0,769.0,816.0,849.0,863.0,839.0
176,529.0,607.0,673.0,730.0,797.0,814.0
177,511.0,541.0,579.0,626.0,704.0,749.0
178,502.0,511.0,529.0,557.0,631.0,687.0
179,481.0,487.0,495.0,510.0,562.0,618.0
180,473.0,476.0,479.0,485.0,525.0,574.0
181,467.0,466.0,466.0,468.0,488.0,527.0
182,457.0,459.0,459.0,459.0,475.0,504.0
183,452.0,451.0,450.0,449.0,455.0,475.0
184,449.0,448.0,446.0,445.0,452.0,467.0
185,448.0,445.0,442.0,439.0,438.0,448.0
186,452.0,448.0,444.0,441.0,442.0,448.0
187,452.0,448.0,443.0,439.0,434.0,436.0
188,454.0,451.0,447.0,443.0,443.0,443.0
189,461.0,455.0,449.0,443.0,436.0,434.0
190,469.0,462.0,455.0,450.0,446.0,443.0
191,476.0,468.0,460.0,453.0,443.0,438.0
192,478.0,473.0,467.0,461.0,455.0,449.0
193,484.0,477.0,470.0,463.0,453.0,445.0
194,486.0,481.0,475.0,470.0,464.0,457.0
195,493.0,485.0,478.0,472.0,461.0,453.0
196,498.0,492.0,485.0,479.0,473.0,465.0
197,501.0,495.0,488.0,481.0,471.0,462.0
198,506.0,500.0,494.0,488.0,483.0,475.0
199,516.0,507.0,499.0,492.0,481.0,472.0
200,522.0,515.0,508.0,501.0,493.0,484.0
201,528.0,521.0,513.0,505.0,492.0,483.0
202,535.0,529.0,521.0,515.0,507.0,497.0
203,531.0,525.0,519.0,513.0,501.0,492.0
204,540.0,534.0,528.0,522.0,516.0,507.0
205,551.0,542.0,533.0,525.0,513.0,504.0
206,542.0,539.0,534.0,528.0,522.0,514.0
207,552.0,544.0,537.0,530.0,519.0,511.0
208,558.0,551.0,544.0,537.0,531.0,523.0
209,569.0,559.0,550.0,542.0,530.0,521.0
210,576.0,569.0,561.0,553.0,544.0,534.0
211,587.0,577.0,568.0,559.0,545.0,534.0
212,593.0,586.0,578.0,570.0,562.0,551.0
213,602.0,592.0,584.0,575.0,561.0,549.0
214,601.0,596.0,589.0,583.0,574.0,563.0
215,608.0,600.0,593.0,585.0,572.0,561.0
216,612.0,606.0,599.0,593.0,585.0,575.0
217,616.0,609.0,601.0,594.0,582.0,572.0
218,624.0,617.0,610.0,603.0,596.0,586.0
219,620.0,614.0,608.0,602.0,591.0,582.0
220,623.0,619.0,613.0,608.0,603.0,595.0
221,626.0,619.0,613.0,607.0,597.0,589.0
222,625.0,622.0,617.0,613.0,609.0,602.0
223,622.0,619.0,615.0,611.0,604.0,598.0
224,627.0,624.0,620.0,617.0,614.0,609.0
225,618.0,616.0,613.0,610.0,603.0,599.0
226,607.0,609.0,608.0,607.0,608.0,605.0
227,581.0,585.0,588.0,590.0,591.0,591.0
228,569.0,574.0,577.0,580.0,590.0,593.0
229,560.0,563.0,565.0,568.0,574.0,579.0
230,515.0,525.0,532.0,538.0,551.0,560.0
231,512.0,514.0,516.0,520.0,530.0,541.0
232,511.0,512.0,512.0,514.0,526.0,536.0
233,496.0,498.0,497.0,498.0,503.0,513.0
234,485.0,487.0,488.0,489.0,498.0,507.0
235,479.0,479.0,478.0,477.0,480.0,488.0
236,477.0,476.0,475.0,474.0,481.0,488.0
237,471.0,469.0,467.0,465.0,466.0,471.0
238,469.0,467.0,465.0,463.0,467.0,471.0
239,469.0,465.0,461.0,458.0,456.0,459.0
240,466.0,464.0,461.0,458.0,460.0,462.0
241,478.0,471.0,465.0,459.0,454.0,453.0
242,477.0,474.0,469.0,464.0,462.0,460.0
243,480.0,474.0,468.0,463.0,455.0,452.0
244,475.0,472.0,469.0,465.0,463.0,459.0
245,484.0,477.0,471.0,465.0,457.0,453.0
246,485.0,481.0,475.0,470.0,467.0,462.0
247,490.0,483.0,477.0,471.0,462.0,457.0
248,483.0,480.0,477.0,473.0,469.0,464.0
249,488.0,482.0,477.0,472.0,464.0,458.0
250,490.0,484.0,479.0,475.0,472.0,467.0
251,492.0,486.0,480.0,475.0,467.0,461.0
252,492.0,488.0,484.0,480.0,477.0,472.0
253,500.0,493.0,487.0,482.0,474.0,469.0
254,512.0,504.0,497.0,492.0,488.0,482.0
255,526.0,515.0,506.0,499.0,487.0,479.0
0,529.0,523.0,516.0,512.0,503.0,494.0
1,517.0,516.0,512.0,509.0,503.0,493.0
2,513.0,511.0,507.0,505.0,506.0,501.0
3,522.0,515.0,509.0,503.0,498.0,494.0
4,531.0,525.0,519.0,513.0,512.0,508.0
5,483.0,488.0,490.0,489.0,485.0,483.0
6,476.0,477.0,478.0,479.0,484.0,484.0
7,477.0,473.0,470.0,469.0,469.0,471.0
8,480.0,476.0,471.0,469.0,472.0,473.0
9,483.0,477.0,471.0,466.0,461.0,461.0
10,486.0,481.0,475.0,470.0,469.0,467.0
11,491.0,484.0,477.0,471.0,463.0,460.0
12,495.0,489.0,483.0,477.0,473.0,468.0
13,494.0,489.0,483.0,477.0,468.0,462.0
14,490.0,488.0,484.0,480.0,477.0,471.0
15,491.0,486.0,481.0,477.0,470.0,465.0
16,492.0,488.0,483.0,479.0,476.0,472.0
17,492.0,487.0,482.0,478.0,470.0,465.0
18,494.0,491.0,485.0,481.0,478.0,474.0
19,495.0,490.0,485.0,480.0,472.0,467.0
20,491.0,489.0,485.0,482.0,479.0,475.0
21,491.0,487.0,483.0,479.0,472.0,468.0
22,492.0,489.0,485.0,481.0,480.0,476.0
23,493.0,488.0,483.0,478.0,472.0,468.0
24,495.0,491.0,486.0,482.0,479.0,476.0
25,495.0,490.0,485.0,480.0,473.0,468.0
26,497.0,493.0,488.0,483.0,481.0,477.0
27,500.0,494.0,488.0,483.0,475.0,470.0
28,499.0,496.0,491.0,487.0,485.0,480.0
29,501.0,496.0,490.0,485.0,478.0,473.0
30,493.0,492.0,489.0,486.0,485.0,481.0
31,502.0,495.0,490.0,485.0,478.0,474.0
32,501.0,497.0,492.0,488.0,486.0,482.0
33,503.0,497.0,492.0,487.0,479.0,474.0
34,501.0,498.0,494.0,490.0,488.0,483.0
35,504.0,498.0,493.0,488.0,480.0,476.0
36,501.0,498.0,494.0,490.0,488.0,484.0
37,505.0,499.0,493.0,489.0,481.0,477.0
38,504.0,501.0,496.0,492.0,489.0,485.0
39,506.0,500.0,495.0,490.0,482.0,478.0
40,507.0,503.0,498.0,494.0,491.0,486.0
41,506.0,501.0,496.0,491.0,484.0,479.0
42,501.0,499.0,496.0,493.0,491.0,487.0
43,502.0,497.0,493.0,489.0,483.0,479.0
44,498.0,497.0,494.0,491.0,491.0,488.0
45,504.0,498.0,493.0,490.0,484.0,481.0
46,500.0,498.0,495.0,493.0,494.0,492.0
47,503.0,498.0,495.0,492.0,488.0,484.0
48,500.0,499.0,497.0,498.0,500.0,498.0
49,500.0,496.0,492.0,490.0,490.0,490.0
50,502.0,497.0,491.0,487.0,491.0,490.0
51,504.0,497.0,490.0,484.0,479.0,479.0
52,502.0,498.0,493.0,488.0,487.0,486.0
53,506.0,499.0,492.0,486.0,478.0,475.0
54,504.0,500.0,494.0,489.0,485.0,481.0
55,502.0,497.0,492.0,486.0,478.0,473.0
56,505.0,500.0,495.0,490.0,486.0,481.0
57,506.0,501.0,495.0,489.0,480.0,475.0
58,504.0,501.0,496.0,492.0,489.0,484.0
59,516.0,508.0,500.0,494.0,484.0,478.0
60,505.0,503.0,499.0,494.0,491.0,485.0
61,511.0,504.0,498.0,493.0,484.0,479.0
62,511.0,506.0,501.0,496.0,493.0,488.0
63,512.0,506.0,500.0,495.0,486.0,481.0
64,510.0,506.0,502.0,497.0,493.0,488.0
65,511.0,506.0,500.0,495.0,487.0,481.0
66,515.0,509.0,504.0,499.0,496.0,490.0
67,515.0,509.0,503.0,498.0,490.0,484.0
68,520.0,514.0,508.0,503.0,499.0,493.0
69,527.0,520.0,513.0,506.0,496.0,489.0
70,521.0,518.0,513.0,508.0,504.0,497.0
71,531.0,524.0,517.0,510.0,500.0,493.0
72,542.0,533.0,526.0,519.0,512.0,504.0
73,551.0,541.0,532.0,524.0,511.0,501.0
74,558.0,550.0,542.0,534.0,525.0,515.0
75,558.0,551.0,544.0,537.0,524.0,513.0
76,551.0,549.0,545.0,541.0,536.0,527.0
77,551.0,547.0,544.0,540.0,532.0,524.0
78,538.0,538.0,537.0,536.0,536.0,531.0
79,542.0,537.0,533.0,530.0,526.0,522.0
80,539.0,536.0,533.0,530.0,531.0,528.0
81,548.0,541.0,535.0,531.0,525.0,522.0
82,539.0,538.0,534.0,531.0,531.0,528.0
83,533.0,531.0,528.0,525.0,521.0,518.0
84,514.0,517.0,517.0,517.0,520.0,519.0
85,502.0,503.0,503.0,504.0,504.0,505.0
86,488.0,491.0,493.0,494.0,502.0,505.0
87,497.0,492.0,489.0,487.0,488.0,491.0
88,492.0,489.0,486.0,484.0,486.0,489.0
89,495.0,489.0,484.0,480.0,476.0,476.0
90,495.0,491.0,486.0,482.0,482.0,482.0
91,504.0,497.0,490.0,484.0,476.0,474.0
92,497.0,495.0,491.0,487.0,484.0,481.0
93,498.0,493.0,489.0,484.0,477.0,473.0
94,487.0,486.0,484.0,481.0,481.0,478.0
95,495.0,489.0,483.0,479.0,472.0,469.0
96,494.0,490.0,486.0,482.0,481.0,478.0
97,500.0,494.0,488.0,482.0,475.0,471.0
98,495.0,493.0,489.0,485.0,483.0,479.0
99,504.0,497.0,490.0,485.0,477.0,472.0
100,503.0,499.0,494.0,489.0,487.0,482.0
101,506.0,500.0,494.0,489.0,481.0,476.0
102,500.0,498.0,495.0,491.0,489.0,484.0
103,490.0,489.0,487.0,485.0,479.0,476.0
104,462.0,468.0,472.0,474.0,479.0,479.0
105,444.0,449.0,453.0,456.0,460.0,463.0
106,453.0,450.0,448.0,449.0,457.0,461.0
107,518.0,493.0,475.0,463.0,454.0,453.0
108,580.0,550.0,523.0,501.0,480.0,469.0
109,731.0,669.0,618.0,576.0,522.0,493.0
110,849.0,786.0,727.0,674.0,601.0,550.0
111,976.0,908.0,844.0,784.0,686.0,615.0
112,1019.0,977.0,931.0,881.0,788.0,705.0
113,1016.0,997.0,969.0,933.0,851.0,770.0
114,923.0,940.0,943.0,934.0,890.0,825.0
115,803.0,845.0,875.0,893.0,885.0,846.0
116,573.0,660.0,728.0,781.0,834.0,836.0
117,499.0,550.0,604.0,659.0,738.0,775.0
118,511.0,522.0,545.0,580.0,661.0,717.0
119,518.0,514.0,519.0,534.0,589.0,646.0
120,493.0,498.0,501.0,508.0,550.0,601.0
121,492.0,490.0,489.0,490.0,512.0,552.0
122,482.0,483.0,482.0,482.0,499.0,529.0
123,481.0,478.0,476.0,474.0,478.0,499.0
124,467.0,469.0,469.0,468.0,477.0,492.0
125,468.0,465.0,463.0,461.0,461.0,472.0
126,466.0,463.0,461.0,459.0,463.0,471.0
127,469.0,464.0,460.0,456.0,453.0,457.0
128,468.0,465.0,461.0,457.0,458.0,460.0
129,477.0,469.0,463.0,457.0,451.0,450.0
130,473.0,470.0,465.0,461.0,459.0,457.0
131,483.0,475.0,469.0,463.0,454.0,450.0
132,486.0,480.0,474.0,469.0,465.0,460.0
133,494.0,486.0,478.0,471.0,461.0,455.0
134,494.0,489.0,483.0,478.0,472.0,466.0
135,500.0,493.0,486.0,480.0,469.0,462.0
136,501.0,497.0,491.0,485.0,479.0,472.0
137,507.0,500.0,494.0,487.0,476.0,468.0
138,510.0,505.0,499.0,493.0,488.0,480.0
139,520.0,511.0,503.0,496.0,485.0,477.0
