Timestamp,Counter,Channel1,Channel2,Channel3,Channel4,Channel5,Channel6
13:31:53:100423,141,8102.0,2685.0,3612.0,4414.0,3231.0,2386.0
13:31:53:102580,142,8110.0,2640.0,3568.0,4397.0,3204.0,2373.0
13:31:53:104457,143,8090.0,2623.0,3580.0,4388.0,3208.0,2390.0
13:31:53:106443,144,8058.0,2620.0,3598.0,4381.0,3212.0,2394.0
13:31:53:108319,145,8049.0,2644.0,3564.0,4384.0,3183.0,2367.0
13:31:53:110290,146,8053.0,2637.0,3576.0,4390.0,3178.0,2392.0
13:31:53:112404,147,8045.0,2713.0,3632.0,4406.0,3197.0,2417.0
13:31:53:114427,148,8082.0,2776.0,3724.0,4504.0,3220.0,2425.0
13:31:53:116616,149,8116.0,2788.0,3676.0,4518.0,3273.0,2420.0
13:31:53:118797,150,8145.0,2732.0,3662.0,4447.0,3257.0,2399.0
13:31:53:120498,151,8128.0,2676.0,3596.0,4421.0,3197.0,2407.0
13:31:53:122465,152,8145.0,2631.0,3560.0,4389.0,3174.0,2399.0
13:31:53:124388,153,8092.0,2592.0,3574.0,4384.0,3179.0,2375.0
13:31:53:126416,154,8094.0,2575.0,3576.0,4363.0,3209.0,2385.0
13:31:53:128396,155,8073.0,2601.0,3582.0,4357.0,3212.0,2396.0
13:31:53:130367,156,8094.0,2646.0,3591.0,4385.0,3196.0,2402.0
13:31:53:132458,157,8067.0,2716.0,3653.0,4409.0,3218.0,2429.0
13:31:53:134574,158,8111.0,2782.0,3720.0,4507.0,3254.0,2407.0
13:31:53:136401,159,8146.0,2764.0,3718.0,4528.0,3231.0,2403.0
13:31:53:138635,160,8131.0,2711.0,3652.0,4457.0,3226.0,2429.0
13:31:53:140422,161,8099.0,2676.0,3610.0,4409.0,3230.0,2413.0
13:31:53:142370,162,8101.0,2632.0,3600.0,4379.0,3211.0,2369.0
13:31:53:144677,163,8103.0,2610.0,3571.0,4372.0,3202.0,2388.0
13:31:53:146442,164,8063.0,2610.0,3568.0,4382.0,3178.0,2393.0
13:31:53:148677,165,8044.0,2584.0,3592.0,4370.0,3206.0,2409.0
13:31:53:150478,166,8064.0,2647.0,3620.0,4365.0,3203.0,2366.0
13:31:53:153091,167,8078.0,2693.0,3628.0,4406.0,3216.0,2387.0
13:31:53:154329,168,8094.0,2766.0,3714.0,4502.0,3233.0,2435.0
13:31:53:156416,169,8081.0,2773.0,3720.0,4521.0,3230.0,2399.0
13:31:53:158602,170,8138.0,2750.0,3656.0,4471.0,3226.0,2422.0
13:31:53:160492,171,8193.0,2657.0,3610.0,4420.0,3222.0,2414.0
13:31:53:162415,172,8172.0,2591.0,3578.0,4398.0,3186.0,2391.0
13:31:53:164354,173,8094.0,2607.0,3566.0,4380.0,3210.0,2389.0
13:31:53:166995,174,8117.0,2629.0,3560.0,4376.0,3208.0,2397.0
13:31:53:168436,175,8127.0,2635.0,3570.0,4372.0,3182.0,2401.0
13:31:53:170446,176,8155.0,2650.0,3574.0,4392.0,3233.0,2383.0
13:31:53:172407,177,8087.0,2729.0,3622.0,4390.0,3232.0,2427.0
13:31:53:174499,178,8096.0,2778.0,3716.0,4501.0,3233.0,2412.0
13:31:53:176397,179,8117.0,2770.0,3723.0,4518.0,3246.0,2416.0
13:31:53:178397,180,8141.0,2700.0,3660.0,4471.0,3246.0,2402.0
13:31:53:180413,181,8127.0,2683.0,3606.0,4418.0,3208.0,2414.0
13:31:53:182472,182,8141.0,2620.0,3576.0,4412.0,3187.0,2373.0
13:31:53:184412,183,8137.0,2609.0,3558.0,4362.0,3185.0,2388.0
13:31:53:186494,184,8114.0,2633.0,3578.0,4377.0,3185.0,2366.0
13:31:53:188302,185,8108.0,2630.0,3562.0,4377.0,3184.0,2395.0
13:31:53:190362,186,8127.0,2644.0,3569.0,4390.0,3208.0,2367.0
13:31:53:192404,187,8067.0,2714.0,3647.0,4400.0,3219.0,2408.0
13:31:53:194339,188,8116.0,2785.0,3722.0,4503.0,3254.0,2399.0
13:31:53:196454,189,8156.0,2769.0,3720.0,4524.0,3236.0,2431.0
13:31:53:198554,190,8160.0,2736.0,3624.0,4452.0,3218.0,2391.0
13:31:53:200506,191,8163.0,2677.0,3598.0,4418.0,3184.0,2399.0
13:31:53:202323,192,8131.0,2626.0,3570.0,4389.0,3225.0,2365.0
13:31:53:204380,193,8093.0,2597.0,3564.0,4383.0,3220.0,2359.0
13:31:53:206386,194,8043.0,2564.0,3564.0,4378.0,3206.0,2375.0
13:31:53:208419,195,8051.0,2630.0,3600.0,4377.0,3183.0,2367.0
13:31:53:210391,196,8053.0,2632.0,3616.0,4370.0,3219.0,2404.0
13:31:53:212497,197,8072.0,2722.0,3652.0,4408.0,3208.0,2392.0
13:31:53:214428,198,8104.0,2778.0,3720.0,4502.0,3237.0,2404.0
13:31:53:216493,199,8098.0,2778.0,3718.0,4527.0,3269.0,2407.0
13:31:53:218580,200,8122.0,2726.0,3638.0,4450.0,3230.0,2422.0
13:31:53:220398,201,8129.0,2687.0,3602.0,4404.0,3199.0,2399.0
13:31:53:222447,202,8135.0,2637.0,3567.0,4380.0,3186.0,2362.0
13:31:53:224517,203,8088.0,2573.0,3566.0,4379.0,3182.0,2383.0
13:31:53:226655,204,8073.0,2623.0,3532.0,4357.0,3170.0,2383.0
13:31:53:228683,205,8066.0,2637.0,3561.0,4381.0,3186.0,2369.0
13:31:53:230474,206,8058.0,2651.0,3553.0,4388.0,3193.0,2370.0
13:31:53:232457,207,8044.0,2728.0,3654.0,4413.0,3214.0,2399.0
13:31:53:234401,208,8094.0,2789.0,3726.0,4505.0,3252.0,2440.0
13:31:53:236458,209,8092.0,2784.0,3718.0,4528.0,3235.0,2378.0
13:31:53:238428,210,8109.0,2733.0,3659.0,4468.0,3253.0,2399.0
13:31:53:240917,211,8117.0,2695.0,3620.0,4425.0,3204.0,2409.0
13:31:53:242483,212,8104.0,2647.0,3610.0,4382.0,3215.0,2385.0
13:31:53:244406,213,8115.0,2601.0,3579.0,4398.0,3207.0,2382.0
13:31:53:246497,214,8070.0,2637.0,3566.0,4382.0,3176.0,2368.0
13:31:53:248568,215,8029.0,2626.0,3568.0,4390.0,3191.0,2367.0
13:31:53:250452,216,8064.0,2637.0,3572.0,4392.0,3220.0,2377.0
13:31:53:252451,217,8038.0,2703.0,3610.0,4397.0,3214.0,2387.0
13:31:53:254405,218,8073.0,2778.0,3714.0,4486.0,3238.0,2399.0
13:31:53:256431,219,8095.0,2780.0,3720.0,4535.0,3247.0,2412.0
13:31:53:258410,220,8157.0,2739.0,3668.0,4474.0,3232.0,2438.0
13:31:53:260391,221,8146.0,2711.0,3610.0,4415.0,3250.0,2387.0
13:31:53:262374,222,8128.0,2637.0,3612.0,4381.0,3192.0,2389.0
13:31:53:264384,223,8085.0,2628.0,3610.0,4369.0,3185.0,2375.0
13:31:53:266412,224,8079.0,2620.0,3582.0,4375.0,3222.0,2375.0
13:31:53:268364,225,8034.0,2634.0,3567.0,4388.0,3217.0,2373.0
13:31:53:270442,226,8025.0,2652.0,3597.0,4392.0,3196.0,2416.0
13:31:53:272346,227,8018.0,2698.0,3628.0,4403.0,3209.0,2383.0
13:31:53:274374,228,8054.0,2760.0,3711.0,4496.0,3232.0,2431.0
13:31:53:276390,229,8058.0,2764.0,3720.0,4525.0,3227.0,2431.0
13:31:53:278416,230,8079.0,2736.0,3662.0,4462.0,3237.0,2387.0
13:31:53:280271,231,8073.0,2692.0,3624.0,4426.0,3214.0,2385.0
13:31:53:282568,232,8088.0,2617.0,3580.0,4402.0,3190.0,2367.0
13:31:53:284300,233,8060.0,2594.0,3569.0,4380.0,3188.0,2355.0
13:31:53:286300,234,8045.0,2596.0,3564.0,4383.0,3208.0,2387.0
13:31:53:288937,235,8034.0,2645.0,3566.0,4386.0,3170.0,2404.0
13:31:53:290268,236,8033.0,2637.0,3590.0,4392.0,3180.0,2403.0
13:31:53:292287,237,8030.0,2700.0,3619.0,4397.0,3231.0,2425.0
13:31:53:294383,238,8023.0,2780.0,3708.0,4486.0,3242.0,2433.0
13:31:53:296476,239,8038.0,2806.0,3718.0,4521.0,3252.0,2429.0
13:31:53:298712,240,8094.0,2732.0,3656.0,4462.0,3218.0,2424.0
13:31:53:300359,241,8119.0,2707.0,3620.0,4423.0,3224.0,2388.0
13:31:53:302248,242,8103.0,2642.0,3568.0,4398.0,3208.0,2405.0
13:31:53:304351,243,8071.0,2629.0,3564.0,4382.0,3186.0,2367.0
13:31:53:306358,244,8021.0,2598.0,3556.0,4383.0,3188.0,2399.0
13:31:53:308275,245,8067.0,2645.0,3566.0,4390.0,3190.0,2403.0
13:31:53:310315,246,8055.0,2656.0,3614.0,4386.0,3220.0,2369.0
13:31:53:312352,247,8122.0,2694.0,3630.0,4428.0,3228.0,2387.0
13:31:53:314323,248,8103.0,2748.0,3666.0,4448.0,3244.0,2425.0
13:31:53:316530,249,8156.0,2765.0,3710.0,4503.0,3235.0,2434.0
13:31:53:318379,250,8180.0,2741.0,3652.0,4456.0,3208.0,2402.0
13:31:53:320377,251,8175.0,2699.0,3624.0,4425.0,3199.0,2421.0
13:31:53:322349,252,8106.0,2639.0,3568.0,4388.0,3190.0,2401.0
13:31:53:324276,253,8078.0,2634.0,3564.0,4382.0,3213.0,2394.0
13:31:53:326371,254,8089.0,2599.0,3580.0,4388.0,3188.0,2395.0
13:31:53:328312,255,8105.0,2640.0,3606.0,4386.0,3188.0,2399.0
13:31:53:330290,0,8080.0,2578.0,3595.0,4370.0,3207.0,2401.0
13:31:53:332312,1,8079.0,2696.0,3616.0,4385.0,3235.0,2395.0
13:31:53:334334,2,8075.0,2764.0,3702.0,4469.0,3242.0,2437.0
13:31:53:336233,3,8049.0,2760.0,3716.0,4510.0,3262.0,2419.0
13:31:53:338304,4,8069.0,2724.0,3662.0,4455.0,3206.0,2425.0
13:31:53:340370,5,8171.0,2689.0,3620.0,4423.0,3207.0,2417.0
13:31:53:342663,6,8216.0,2641.0,3604.0,4380.0,3214.0,2374.0
13:31:53:344699,7,8143.0,2577.0,3573.0,4380.0,3206.0,2373.0
13:31:53:346694,8,8102.0,2623.0,3576.0,4391.0,3174.0,2391.0
13:31:53:348565,9,8116.0,2639.0,3577.0,4381.0,3188.0,2367.0
13:31:53:350716,10,8032.0,2627.0,3610.0,4379.0,3222.0,2397.0
13:31:53:352807,11,8024.0,2673.0,3614.0,4394.0,3230.0,2419.0
13:31:53:354818,12,8040.0,2765.0,3710.0,4479.0,3235.0,2444.0
13:31:53:356754,13,8160.0,2776.0,3710.0,4504.0,3254.0,2397.0
13:31:53:358731,14,8062.0,2726.0,3658.0,4460.0,3226.0,2404.0
13:31:53:360573,15,8064.0,2695.0,3612.0,4437.0,3200.0,2405.0
13:31:53:362813,16,8122.0,2645.0,3567.0,4399.0,3186.0,2385.0
13:31:53:364443,17,8126.0,2633.0,3565.0,4383.0,3218.0,2415.0
13:31:53:366673,18,8110.0,2633.0,3560.0,4379.0,3213.0,2379.0
13:31:53:368822,19,8122.0,2652.0,3576.0,4391.0,3212.0,2367.0
13:31:53:370337,20,8062.0,2632.0,3578.0,4389.0,3192.0,2405.0
13:31:53:372311,21,8088.0,2694.0,3632.0,4386.0,3188.0,2384.0
13:31:53:374357,22,8066.0,2764.0,3716.0,4490.0,3226.0,2431.0
13:31:53:376360,23,8119.0,2781.0,3718.0,4513.0,3233.0,2425.0
13:31:53:378318,24,8126.0,2735.0,3660.0,4466.0,3234.0,2412.0
13:31:53:380295,25,8126.0,2697.0,3621.0,4422.0,3204.0,2379.0
13:31:53:382311,26,8132.0,2646.0,3575.0,4393.0,3186.0,2362.0
13:31:53:384359,27,8124.0,2600.0,3574.0,4382.0,3180.0,2390.0
13:31:53:386297,28,8063.0,2630.0,3593.0,4357.0,3181.0,2391.0
13:31:53:388366,29,8060.0,2617.0,3601.0,4364.0,3187.0,2357.0
13:31:53:390356,30,8067.0,2637.0,3578.0,4380.0,3225.0,2391.0
13:31:53:392323,31,8062.0,2694.0,3626.0,4388.0,3238.0,2397.0
13:31:53:394265,32,8070.0,2764.0,3700.0,4478.0,3222.0,2399.0
13:31:53:396316,33,8087.0,2764.0,3704.0,4500.0,3252.0,2401.0
13:31:53:398328,34,8119.0,2736.0,3622.0,4438.0,3214.0,2410.0
13:31:53:400295,35,8112.0,2676.0,3617.0,4413.0,3201.0,2413.0
13:31:53:402399,36,8105.0,2639.0,3610.0,4388.0,3184.0,2353.0
13:31:53:404360,37,8102.0,2602.0,3570.0,4378.0,3188.0,2369.0
13:31:53:406274,38,8098.0,2626.0,3560.0,4387.0,3188.0,2395.0
13:31:53:408268,39,8070.0,2644.0,3566.0,4386.0,3194.0,2387.0
13:31:53:410421,40,8060.0,2656.0,3572.0,4390.0,3182.0,2368.0
13:31:53:412465,41,8046.0,2680.0,3602.0,4389.0,3204.0,2401.0
13:31:53:414390,42,8061.0,2755.0,3694.0,4465.0,3231.0,2444.0
13:31:53:416404,43,8089.0,2778.0,3720.0,4507.0,3261.0,2431.0
13:31:53:418325,44,8078.0,2741.0,3665.0,4469.0,3222.0,2423.0
13:31:53:420473,45,8081.0,2695.0,3621.0,4442.0,3246.0,2405.0
13:31:53:422301,46,8059.0,2638.0,3568.0,4402.0,3198.0,2364.0
13:31:53:424363,47,8091.0,2609.0,3580.0,4388.0,3182.0,2367.0
13:31:53:426292,48,8082.0,2601.0,3572.0,4391.0,3185.0,2397.0
13:31:53:428312,49,8094.0,2638.0,3566.0,4385.0,3188.0,2357.0
13:31:53:430357,50,8072.0,2628.0,3610.0,4373.0,3190.0,2389.0
13:31:53:432371,51,8119.0,2687.0,3612.0,4407.0,3210.0,2404.0
13:31:53:434860,52,7962.0,2764.0,3706.0,4479.0,3230.0,2414.0
13:31:53:436374,53,8066.0,2772.0,3710.0,4504.0,3221.0,2427.0
13:31:53:438295,54,8097.0,2732.0,3658.0,4461.0,3214.0,2409.0
13:31:53:440465,55,8119.0,2695.0,3620.0,4414.0,3204.0,2411.0
13:31:53:442358,56,8138.0,2646.0,3609.0,4386.0,3181.0,2391.0
13:31:53:444362,57,8114.0,2620.0,3541.0,4356.0,3175.0,2369.0
13:31:53:446350,58,8098.0,2612.0,3572.0,4383.0,3166.0,2375.0
13:31:53:448917,59,8063.0,2635.0,3572.0,4373.0,3181.0,2381.0
13:31:53:450787,60,8007.0,2660.0,3622.0,4392.0,3184.0,2394.0
13:31:53:452794,61,8018.0,2700.0,3598.0,4400.0,3202.0,2374.0
13:31:53:454800,62,8005.0,2750.0,3680.0,4463.0,3231.0,2399.0
13:31:53:457039,63,8029.0,2801.0,3708.0,4499.0,3241.0,2412.0
13:31:53:458823,64,8055.0,2728.0,3662.0,4465.0,3246.0,2405.0
13:31:53:460730,65,8101.0,2687.0,3610.0,4420.0,3199.0,2396.0
13:31:53:462823,66,8085.0,2636.0,3570.0,4391.0,3177.0,2372.0
13:31:53:464709,67,8117.0,2609.0,3578.0,4376.0,3184.0,2385.0
13:31:53:466895,68,8090.0,2614.0,3576.0,4377.0,3188.0,2361.0
13:31:53:468818,69,8100.0,2631.0,3606.0,4359.0,3188.0,2392.0
13:31:53:470371,70,8107.0,2636.0,3614.0,4377.0,3195.0,2402.0
13:31:53:472327,71,8086.0,2689.0,3614.0,4385.0,3220.0,2408.0
13:31:53:474868,72,8095.0,2757.0,3702.0,4475.0,3252.0,2423.0
13:31:53:476496,73,8088.0,2772.0,3716.0,4514.0,3213.0,2411.0
13:31:53:478785,74,8101.0,2737.0,3648.0,4466.0,3226.0,2428.0
13:31:53:480814,75,8116.0,2702.0,3626.0,4418.0,3247.0,2393.0
13:31:53:482829,76,8102.0,2633.0,3568.0,4396.0,3221.0,2406.0
13:31:53:484672,77,8102.0,2626.0,3554.0,4371.0,3192.0,2399.0
13:31:53:486702,78,8063.0,2614.0,3520.0,4354.0,3214.0,2397.0
13:31:53:488755,79,8044.0,2635.0,3568.0,4377.0,3202.0,2371.0
13:31:53:490773,80,8038.0,2650.0,3604.0,4376.0,3212.0,2366.0
13:31:53:492779,81,8055.0,2678.0,3602.0,4380.0,3224.0,2395.0
13:31:53:494255,82,8065.0,2758.0,3702.0,4471.0,3229.0,2406.0
13:31:53:496433,83,8074.0,2772.0,3712.0,4516.0,3259.0,2399.0
13:31:53:498971,84,8107.0,2740.0,3660.0,4457.0,3216.0,2395.0
13:31:53:500362,85,8101.0,2700.0,3598.0,4404.0,3199.0,2399.0
13:31:53:502306,86,8133.0,2645.0,3570.0,4395.0,3203.0,2407.0
13:31:53:504336,87,8098.0,2616.0,3544.0,4370.0,3224.0,2390.0
13:31:53:506317,88,8081.0,2628.0,3602.0,4364.0,3189.0,2399.0
13:31:53:508356,89,8066.0,2612.0,3582.0,4377.0,3192.0,2383.0
13:31:53:510295,90,8058.0,2637.0,3600.0,4380.0,3210.0,2399.0
13:31:53:512329,91,8059.0,2696.0,3618.0,4383.0,3211.0,2415.0
13:31:53:514281,92,8053.0,2783.0,3716.0,4490.0,3227.0,2413.0
13:31:53:516314,93,8068.0,2767.0,3716.0,4527.0,3258.0,2415.0
13:31:53:518404,94,8068.0,2733.0,3662.0,4468.0,3243.0,2391.0
13:31:53:520355,95,8120.0,2697.0,3603.0,4407.0,3230.0,2407.0
13:31:53:522387,96,8109.0,2647.0,3608.0,4373.0,3192.0,2353.0
13:31:53:524369,97,8120.0,2570.0,3572.0,4377.0,3213.0,2387.0
13:31:53:526320,98,8136.0,2600.0,3604.0,4371.0,3183.0,2394.0
13:31:53:528345,99,8057.0,2626.0,3595.0,4368.0,3183.0,2367.0
13:31:53:530352,100,8009.0,2632.0,3568.0,4388.0,3216.0,2393.0
13:31:53:532463,101,8085.0,2696.0,3620.0,4389.0,3238.0,2395.0
13:31:53:534366,102,8177.0,2757.0,3702.0,4482.0,3262.0,2415.0
13:31:53:536301,103,8183.0,2758.0,3710.0,4511.0,3271.0,2441.0
13:31:53:538370,104,8109.0,2751.0,3677.0,4473.0,3217.0,2437.0
13:31:53:540351,105,8140.0,2699.0,3611.0,4413.0,3200.0,2408.0
13:31:53:542258,106,8155.0,2651.0,3568.0,4394.0,3190.0,2403.0
13:31:53:544316,107,8067.0,2601.0,3582.0,4380.0,3184.0,2358.0
13:31:53:546397,108,8048.0,2607.0,3544.0,4382.0,3173.0,2392.0
13:31:53:548438,109,8037.0,2644.0,3565.0,4384.0,3190.0,2373.0
13:31:53:550295,110,8028.0,2655.0,3576.0,4388.0,3201.0,2389.0
13:31:53:552289,111,8040.0,2692.0,3610.0,4392.0,3205.0,2395.0
13:31:53:554287,112,8034.0,2754.0,3701.0,4482.0,3234.0,2405.0
13:31:53:556362,113,8061.0,2765.0,3711.0,4516.0,3233.0,2431.0
13:31:53:558273,114,8029.0,2725.0,3658.0,4466.0,3214.0,2387.0
13:31:53:560352,115,8036.0,2690.0,3622.0,4428.0,3239.0,2379.0
13:31:53:562431,116,8098.0,2637.0,3568.0,4403.0,3188.0,2358.0
13:31:53:564493,117,8082.0,2604.0,3580.0,4400.0,3176.0,2389.0
13:31:53:567070,118,8061.0,2589.0,3563.0,4382.0,3210.0,2412.0
13:31:53:568571,119,8042.0,2646.0,3564.0,4387.0,3220.0,2376.0
13:31:53:570689,120,8024.0,2658.0,3570.0,4386.0,3210.0,2393.0
13:31:53:572810,121,8021.0,2700.0,3614.0,4386.0,3214.0,2434.0
13:31:53:575066,122,8049.0,2764.0,3706.0,4476.0,3247.0,2431.0
13:31:53:576687,123,8057.0,2758.0,3711.0,4506.0,3247.0,2399.0
13:31:53:578338,124,8099.0,2725.0,3658.0,4460.0,3236.0,2401.0
13:31:53:580653,125,8101.0,2695.0,3615.0,4429.0,3223.0,2372.0
13:31:53:582595,126,8155.0,2629.0,3579.0,4396.0,3199.0,2389.0
13:31:53:584398,127,8086.0,2638.0,3569.0,4379.0,3219.0,2399.0
13:31:53:586485,128,8064.0,2628.0,3604.0,4360.0,3183.0,2404.0
13:31:53:588347,129,8071.0,2653.0,3570.0,4381.0,3186.0,2392.0
13:31:53:590431,130,8046.0,2644.0,3608.0,4382.0,3176.0,2375.0
13:31:53:592502,131,8021.0,2708.0,3606.0,4364.0,3222.0,2407.0
13:31:53:594279,132,8049.0,2764.0,3707.0,4479.0,3231.0,2409.0
13:31:53:596362,133,8082.0,2779.0,3714.0,4516.0,3257.0,2399.0
13:31:53:598252,134,8109.0,2724.0,3658.0,4461.0,3218.0,2398.0
13:31:53:600533,135,8114.0,2701.0,3627.0,4427.0,3233.0,2391.0
13:31:53:602281,136,8131.0,2618.0,3589.0,4369.0,3204.0,2381.0
13:31:53:604276,137,8071.0,2623.0,3579.0,4382.0,3179.0,2361.0
13:31:53:606271,138,8043.0,2616.0,3578.0,4389.0,3186.0,2379.0
13:31:53:608255,139,8070.0,2637.0,3572.0,4388.0,3167.0,2394.0
13:31:53:610266,140,8100.0,2683.0,3607.0,4378.0,3212.0,2377.0
13:31:53:612268,141,8068.0,2687.0,3608.0,4383.0,3231.0,2397.0
13:31:53:614350,142,8087.0,2758.0,3704.0,4479.0,3217.0,2409.0
13:31:53:616396,143,8095.0,2776.0,3714.0,4511.0,3265.0,2435.0
13:31:53:618319,144,8116.0,2740.0,3662.0,4468.0,3226.0,2435.0
13:31:53:620308,145,8097.0,2716.0,3604.0,4434.0,3230.0,2381.0
13:31:53:622990,146,8082.0,2645.0,3568.0,4399.0,3192.0,2373.0
13:31:53:624748,147,8103.0,2637.0,3570.0,4383.0,3190.0,2388.0
13:31:53:626794,148,8148.0,2620.0,3580.0,4376.0,3205.0,2375.0
13:31:53:628748,149,8138.0,2636.0,3602.0,4372.0,3182.0,2367.0
13:31:53:630835,150,8155.0,2613.0,3582.0,4375.0,3196.0,2387.0
13:31:53:632647,151,8026.0,2696.0,3614.0,4385.0,3235.0,2417.0
13:31:53:634874,152,8058.0,2758.0,3706.0,4469.0,3230.0,2441.0
13:31:53:636256,153,8078.0,2772.0,3715.0,4512.0,3258.0,2405.0
13:31:53:638279,154,8105.0,2730.0,3662.0,4468.0,3259.0,2399.0
13:31:53:640270,155,8092.0,2692.0,3620.0,4414.0,3202.0,2411.0
13:31:53:642358,156,8089.0,2641.0,3570.0,4408.0,3190.0,2393.0
13:31:53:644356,157,8074.0,2629.0,3602.0,4376.0,3182.0,2353.0
13:31:53:646355,158,8056.0,2610.0,3570.0,4376.0,3180.0,2381.0
13:31:53:648337,159,8017.0,2633.0,3562.0,4385.0,3212.0,2397.0
13:31:53:650306,160,7992.0,2660.0,3588.0,4394.0,3214.0,2389.0
13:31:53:652301,161,7993.0,2698.0,3624.0,4390.0,3204.0,2427.0
13:31:53:654796,162,8023.0,2765.0,3706.0,4484.0,3228.0,2417.0
13:31:53:656828,163,8044.0,2771.0,3716.0,4501.0,3234.0,2411.0
13:31:53:658832,164,8076.0,2726.0,3664.0,4467.0,3255.0,2415.0
13:31:53:660760,165,8133.0,2692.0,3618.0,4426.0,3235.0,2403.0
13:31:53:662662,166,8106.0,2636.0,3570.0,4380.0,3204.0,2372.0
13:31:53:664869,167,8097.0,2578.0,3562.0,4382.0,3204.0,2379.0
13:31:53:666795,168,8070.0,2622.0,3579.0,4375.0,3191.0,2360.0
13:31:53:668839,169,8060.0,2616.0,3592.0,4371.0,3206.0,2377.0
13:31:53:670551,170,8052.0,2647.0,3614.0,4368.0,3187.0,2358.0
13:31:53:672540,171,8011.0,2676.0,3602.0,4388.0,3198.0,2385.0
13:31:53:674834,172,7989.0,2750.0,3658.0,4448.0,3226.0,2419.0
13:31:53:676756,173,8078.0,2759.0,3704.0,4499.0,3265.0,2425.0
13:31:53:678834,174,8133.0,2705.0,3642.0,4452.0,3257.0,2413.0
13:31:53:680757,175,8111.0,2691.0,3620.0,4424.0,3200.0,2378.0
13:31:53:682780,176,8103.0,2644.0,3564.0,4395.0,3188.0,2365.0
13:31:53:684723,177,8093.0,2612.0,3576.0,4391.0,3183.0,2375.0
13:31:53:686831,178,8108.0,2626.0,3600.0,4371.0,3209.0,2408.0
13:31:53:688824,179,8105.0,2654.0,3567.0,4379.0,3218.0,2404.0
13:31:53:690829,180,8078.0,2650.0,3566.0,4390.0,3226.0,2406.0
13:31:53:692267,181,8070.0,2684.0,3596.0,4394.0,3227.0,2398.0
13:31:53:694773,182,8069.0,2756.0,3705.0,4476.0,3224.0,2413.0
13:31:53:696880,183,8125.0,2773.0,3718.0,4514.0,3229.0,2411.0
13:31:53:698261,184,8154.0,2735.0,3666.0,4461.0,3254.0,2399.0
13:31:53:700474,185,8150.0,2700.0,3623.0,4417.0,3230.0,2419.0
13:31:53:702493,186,8143.0,2646.0,3612.0,4380.0,3214.0,2367.0
13:31:53:704565,187,8145.0,2564.0,3570.0,4381.0,3189.0,2408.0
13:31:53:706555,188,8150.0,2598.0,3557.0,4390.0,3192.0,2399.0
13:31:53:708873,189,8094.0,2628.0,3571.0,4392.0,3208.0,2374.0
13:31:53:710798,190,8062.0,2615.0,3583.0,4429.0,3189.0,2383.0
13:31:53:712830,191,8061.0,2687.0,3602.0,4382.0,3233.0,2407.0
13:31:53:714679,192,8071.0,2765.0,3708.0,4467.0,3256.0,2435.0
13:31:53:716294,193,8111.0,2756.0,3708.0,4508.0,3242.0,2409.0
13:31:53:718666,194,8138.0,2721.0,3662.0,4451.0,3230.0,2415.0
13:31:53:720898,195,8164.0,2697.0,3620.0,4428.0,3230.0,2413.0
13:31:53:722766,196,8103.0,2639.0,3566.0,4394.0,3184.0,2376.0
13:31:53:724751,197,8067.0,2630.0,3542.0,4385.0,3184.0,2362.0
13:31:53:727073,198,8094.0,2608.0,3570.0,4380.0,3208.0,2386.0
13:31:53:728257,199,8058.0,2640.0,3569.0,4387.0,3213.0,2394.0
13:31:53:730527,200,8076.0,2646.0,3571.0,4396.0,3198.0,2374.0
13:31:53:732316,201,8148.0,2687.0,3608.0,4390.0,3232.0,2396.0
13:31:53:734309,202,8153.0,2758.0,3706.0,4479.0,3256.0,2417.0
13:31:53:736381,203,8082.0,2778.0,3714.0,4518.0,3219.0,2417.0
13:31:53:738369,204,8098.0,2734.0,3654.0,4443.0,3239.0,2428.0
13:31:53:740306,205,8116.0,2693.0,3614.0,4419.0,3232.0,2411.0
13:31:53:742349,206,8080.0,2633.0,3561.0,4399.0,3195.0,2390.0
13:31:53:744343,207,8058.0,2633.0,3564.0,4384.0,3221.0,2397.0
13:31:53:746367,208,8045.0,2600.0,3576.0,4377.0,3211.0,2405.0
13:31:53:748582,209,8034.0,2654.0,3562.0,4392.0,3187.0,2371.0
13:31:53:750757,210,8047.0,2644.0,3578.0,4396.0,3193.0,2378.0
13:31:53:752678,211,8012.0,2693.0,3620.0,4400.0,3208.0,2391.0
13:31:53:754826,212,8041.0,2751.0,3678.0,4445.0,3231.0,2425.0
13:31:53:756791,213,8053.0,2802.0,3714.0,4501.0,3250.0,2429.0
13:31:53:758830,214,8109.0,2747.0,3656.0,4466.0,3249.0,2408.0
13:31:53:760779,215,8152.0,2692.0,3627.0,4422.0,3205.0,2379.0
13:31:53:762744,216,8071.0,2640.0,3564.0,4400.0,3191.0,2371.0
13:31:53:764727,217,8063.0,2616.0,3579.0,4384.0,3207.0,2373.0
13:31:53:766805,218,8030.0,2636.0,3601.0,4350.0,3184.0,2349.0
13:31:53:768823,219,8007.0,2639.0,3562.0,4375.0,3194.0,2377.0
13:31:53:770830,220,7978.0,2651.0,3569.0,4383.0,3220.0,2421.0
13:31:53:772762,221,7989.0,2699.0,3599.0,4385.0,3227.0,2391.0
13:31:53:774835,222,8074.0,2760.0,3704.0,4485.0,3250.0,2404.0
13:31:53:776604,223,8087.0,2756.0,3710.0,4506.0,3266.0,2435.0
13:31:53:778762,224,8117.0,2748.0,3672.0,4467.0,3232.0,2437.0
13:31:53:780719,225,8084.0,2701.0,3611.0,4400.0,3202.0,2426.0
13:31:53:782827,226,8064.0,2652.0,3570.0,4392.0,3186.0,2408.0
13:31:53:784760,227,8107.0,2629.0,3560.0,4378.0,3183.0,2411.0
13:31:53:786829,228,8082.0,2626.0,3612.0,4348.0,3187.0,2403.0
13:31:53:788824,229,8088.0,2629.0,3603.0,4345.0,3186.0,2365.0
13:31:53:790818,230,8068.0,2628.0,3566.0,4364.0,3218.0,2401.0
13:31:53:792250,231,8046.0,2685.0,3608.0,4382.0,3204.0,2391.0
13:31:53:794435,232,8032.0,2759.0,3704.0,4462.0,3224.0,2443.0
13:31:53:796326,233,8089.0,2772.0,3698.0,4509.0,3262.0,2430.0
13:31:53:798311,234,8152.0,2738.0,3662.0,4464.0,3253.0,2437.0
13:31:53:800318,235,8151.0,2703.0,3608.0,4434.0,3224.0,2415.0
13:31:53:802318,236,8145.0,2646.0,3570.0,4398.0,3202.0,2363.0
13:31:53:804322,237,8083.0,2574.0,3576.0,4398.0,3185.0,2396.0
13:31:53:806323,238,8054.0,2593.0,3580.0,4384.0,3191.0,2403.0
13:31:53:808313,239,8049.0,2641.0,3570.0,4391.0,3192.0,2401.0
13:31:53:810271,240,8070.0,2654.0,3614.0,4383.0,3199.0,2393.0
13:31:53:812322,241,8050.0,2690.0,3614.0,4383.0,3229.0,2413.0
13:31:53:814325,242,8044.0,2757.0,3707.0,4479.0,3254.0,2399.0
13:31:53:816329,243,8093.0,2760.0,3712.0,4514.0,3260.0,2401.0
13:31:53:818320,244,8061.0,2727.0,3658.0,4460.0,3215.0,2400.0
13:31:53:820323,245,8056.0,2708.0,3620.0,4413.0,3206.0,2405.0
13:31:53:822453,246,8051.0,2614.0,3589.0,4372.0,3183.0,2393.0
13:31:53:824468,247,8022.0,2634.0,3606.0,4370.0,3191.0,2366.0
13:31:53:826381,248,8076.0,2612.0,3579.0,4376.0,3190.0,2359.0
13:31:53:829044,249,8044.0,2620.0,3545.0,4363.0,3206.0,2403.0
13:31:53:830818,250,8056.0,2652.0,3572.0,4393.0,3188.0,2374.0
13:31:53:832733,251,8043.0,2697.0,3620.0,4400.0,3205.0,2379.0
13:31:53:834834,252,8050.0,2770.0,3707.0,4487.0,3231.0,2439.0
13:31:53:836743,253,8086.0,2789.0,3721.0,4512.0,3259.0,2429.0
13:31:53:838310,254,8097.0,2730.0,3666.0,4468.0,3254.0,2405.0
13:31:53:840767,255,8077.0,2698.0,3618.0,4419.0,3203.0,2385.0
13:31:53:842795,0,8055.0,2638.0,3568.0,4400.0,3186.0,2367.0
13:31:53:844865,1,8091.0,2577.0,3570.0,4388.0,3206.0,2399.0
13:31:53:846245,2,8086.0,2636.0,3600.0,4360.0,3180.0,2377.0
13:31:53:848737,3,8066.0,2639.0,3570.0,4381.0,3229.0,2379.0
13:31:53:850790,4,8070.0,2665.0,3576.0,4389.0,3228.0,2396.0
13:31:53:852902,5,8069.0,2692.0,3610.0,4394.0,3209.0,2411.0
13:31:53:854287,6,8104.0,2764.0,3706.0,4484.0,3228.0,2406.0
13:31:53:856831,7,8117.0,2756.0,3724.0,4518.0,3232.0,2418.0
13:31:53:858796,8,8171.0,2732.0,3662.0,4465.0,3224.0,2427.0
13:31:53:860828,9,8181.0,2695.0,3620.0,4420.0,3242.0,2379.0
13:31:53:862789,10,8119.0,2606.0,3582.0,4394.0,3213.0,2393.0
13:31:53:864869,11,8067.0,2591.0,3566.0,4392.0,3188.0,2363.0
13:31:53:866782,12,8072.0,2599.0,3570.0,4386.0,3191.0,2388.0
13:31:53:868511,13,8064.0,2637.0,3556.0,4390.0,3189.0,2367.0
13:31:53:870568,14,8069.0,2623.0,3554.0,4383.0,3193.0,2404.0
13:31:53:872804,15,8041.0,2689.0,3611.0,4400.0,3204.0,2399.0
13:31:53:874796,16,8053.0,2745.0,3680.0,4436.0,3244.0,2431.0
13:31:53:876829,17,8057.0,2768.0,3711.0,4500.0,3234.0,2436.0
13:31:53:878824,18,8120.0,2746.0,3665.0,4460.0,3219.0,2383.0
13:31:53:880788,19,8156.0,2692.0,3625.0,4423.0,3209.0,2380.0
13:31:53:883040,20,8149.0,2644.0,3568.0,4400.0,3213.0,2372.0
13:31:53:884816,21,8105.0,2609.0,3569.0,4391.0,3176.0,2376.0
13:31:53:886820,22,8117.0,2621.0,3582.0,4381.0,3207.0,2382.0
13:31:53:888737,23,8078.0,2631.0,3609.0,4369.0,3210.0,2370.0
13:31:53:890827,24,8076.0,2630.0,3622.0,4389.0,3189.0,2396.0
13:31:53:892793,25,8061.0,2687.0,3614.0,4389.0,3239.0,2387.0
13:31:53:894856,26,8087.0,2756.0,3706.0,4489.0,3244.0,2418.0
13:31:53:896277,27,8125.0,2768.0,3711.0,4511.0,3262.0,2427.0
13:31:53:898704,28,8126.0,2726.0,3664.0,4468.0,3223.0,2431.0
13:31:53:900795,29,8130.0,2698.0,3618.0,4444.0,3204.0,2409.0
13:31:53:902746,30,8134.0,2616.0,3594.0,4387.0,3218.0,2380.0
13:31:53:904830,31,8162.0,2621.0,3582.0,4396.0,3210.0,2405.0
13:31:53:906824,32,8086.0,2581.0,3576.0,4396.0,3186.0,2357.0
13:31:53:908829,33,8023.0,2620.0,3583.0,4394.0,3190.0,2403.0
13:31:53:910819,34,7981.0,2655.0,3615.0,4378.0,3193.0,2363.0
13:31:53:912267,35,8020.0,2670.0,3596.0,4402.0,3231.0,2421.0
13:31:53:914474,36,8066.0,2737.0,3666.0,4432.0,3255.0,2409.0
13:31:53:916712,37,8102.0,2761.0,3708.0,4492.0,3231.0,2388.0
13:31:53:918607,38,8133.0,2724.0,3644.0,4437.0,3262.0,2409.0
13:31:53:920868,39,8144.0,2694.0,3618.0,4424.0,3237.0,2405.0
13:31:53:922264,40,8123.0,2644.0,3606.0,4380.0,3191.0,2383.0
13:31:53:924769,41,8142.0,2614.0,3570.0,4380.0,3187.0,2391.0
13:31:53:926833,42,8100.0,2632.0,3563.0,4382.0,3183.0,2392.0
13:31:53:928711,43,8052.0,2641.0,3564.0,4389.0,3193.0,2403.0
13:31:53:930853,44,8039.0,2668.0,3594.0,4400.0,3224.0,2376.0
13:31:53:932297,45,8076.0,2701.0,3618.0,4409.0,3205.0,2429.0
13:31:53:934789,46,8081.0,2790.0,3693.0,4465.0,3260.0,2401.0
13:31:53:936832,47,8122.0,2761.0,3711.0,4502.0,3214.0,2431.0
13:31:53:938758,48,8103.0,2725.0,3661.0,4449.0,3206.0,2393.0
13:31:53:940829,49,8125.0,2696.0,3614.0,4415.0,3204.0,2397.0
13:31:53:942743,50,8100.0,2642.0,3583.0,4394.0,3190.0,2393.0
13:31:53:944774,51,8089.0,2621.0,3582.0,4395.0,3213.0,2401.0
13:31:53:946830,52,8048.0,2641.0,3562.0,4369.0,3195.0,2386.0
13:31:53:948761,53,8043.0,2609.0,3590.0,4369.0,3195.0,2407.0
13:31:53:950826,54,8047.0,2625.0,3610.0,4371.0,3198.0,2393.0
13:31:53:952760,55,8051.0,2676.0,3594.0,4380.0,3226.0,2386.0
13:31:53:954832,56,8063.0,2742.0,3682.0,4523.0,3211.0,2409.0
13:31:53:956832,57,8071.0,2758.0,3726.0,4503.0,3237.0,2399.0
13:31:53:958580,58,8100.0,2728.0,3630.0,4448.0,3216.0,2421.0
13:31:53:960541,59,8118.0,2697.0,3626.0,4418.0,3205.0,2415.0
13:31:53:962796,60,8109.0,2655.0,3570.0,4400.0,3192.0,2361.0
13:31:53:964836,61,8092.0,2608.0,3556.0,4386.0,3218.0,2405.0
13:31:53:966799,62,8057.0,2626.0,3564.0,4383.0,3215.0,2376.0
13:31:53:968824,63,8050.0,2612.0,3594.0,4374.0,3185.0,2367.0
13:31:53:970797,64,8053.0,2627.0,3572.0,4374.0,3190.0,2362.0
13:31:53:972821,65,8093.0,2652.0,3582.0,4415.0,3188.0,2381.0
13:31:53:974809,66,8064.0,2742.0,3666.0,4437.0,3216.0,2392.0
13:31:53:976281,67,8076.0,2768.0,3713.0,4504.0,3263.0,2405.0
13:31:53:978303,68,8130.0,2735.0,3664.0,4464.0,3251.0,2437.0
13:31:53:980801,69,8130.0,2717.0,3608.0,4408.0,3204.0,2376.0
13:31:53:982825,70,8141.0,2645.0,3570.0,4396.0,3194.0,2376.0
13:31:53:984796,71,8098.0,2625.0,3562.0,4381.0,3180.0,2365.0
13:31:53:986823,72,8073.0,2608.0,3572.0,4386.0,3182.0,2364.0
13:31:53:988790,73,8168.0,2630.0,3578.0,4380.0,3190.0,2363.0
13:31:53:990870,74,8073.0,2636.0,3570.0,4396.0,3199.0,2381.0
13:31:53:992756,75,8096.0,2687.0,3602.0,4384.0,3247.0,2383.0
13:31:53:994836,76,8098.0,2748.0,3672.0,4443.0,3260.0,2430.0
13:31:53:996761,77,8157.0,2775.0,3713.0,4506.0,3234.0,2435.0
13:31:53:998815,78,8011.0,2740.0,3675.0,4469.0,3244.0,2408.0
13:31:54:000776,79,8067.0,2701.0,3610.0,4412.0,3226.0,2395.0
13:31:54:002823,80,8051.0,2660.0,3608.0,4375.0,3216.0,2363.0
13:31:54:004779,81,8079.0,2607.0,3572.0,4380.0,3183.0,2397.0
13:31:54:006515,82,8110.0,2620.0,3564.0,4393.0,3212.0,2411.0
13:31:54:008775,83,8069.0,2648.0,3606.0,4377.0,3185.0,2378.0
13:31:54:010771,84,8063.0,2649.0,3612.0,4377.0,3182.0,2391.0
13:31:54:012744,85,8018.0,2672.0,3604.0,4375.0,3214.0,2383.0
13:31:54:014826,86,8001.0,2768.0,3708.0,4476.0,3222.0,2414.0
13:31:54:016795,87,8055.0,2770.0,3713.0,4505.0,3235.0,2427.0
13:31:54:018826,88,8070.0,2743.0,3668.0,4469.0,3226.0,2413.0
13:31:54:020778,89,8123.0,2708.0,3620.0,4407.0,3256.0,2406.0
13:31:54:022763,90,8131.0,2644.0,3568.0,4400.0,3230.0,2377.0
13:31:54:024822,91,8119.0,2621.0,3587.0,4368.0,3218.0,2367.0
13:31:54:026791,92,8054.0,2572.0,3567.0,4381.0,3180.0,2367.0
13:31:54:028797,93,8058.0,2617.0,3576.0,4384.0,3184.0,2355.0
13:31:54:030815,94,8095.0,2633.0,3578.0,4383.0,3194.0,2397.0
13:31:54:032829,95,8092.0,2690.0,3612.0,4382.0,3236.0,2422.0
13:31:54:034248,96,8083.0,2766.0,3704.0,4471.0,3253.0,2408.0
13:31:54:036480,97,8109.0,2764.0,3711.0,4506.0,3231.0,2415.0
13:31:54:038765,98,8140.0,2725.0,3659.0,4463.0,3247.0,2438.0
13:31:54:040874,99,8115.0,2702.0,3608.0,4412.0,3204.0,2398.0
13:31:54:042799,100,8102.0,2612.0,3569.0,4392.0,3224.0,2381.0
13:31:54:044859,101,8117.0,2603.0,3580.0,4380.0,3183.0,2401.0
13:31:54:046271,102,8089.0,2626.0,3562.0,4380.0,3208.0,2367.0
13:31:54:048766,103,8083.0,2631.0,3564.0,4378.0,3208.0,2396.0
13:31:54:050808,104,8075.0,2657.0,3568.0,4396.0,3207.0,2398.0
13:31:54:052284,105,8072.0,2687.0,3610.0,4384.0,3208.0,2389.0
13:31:54:054774,106,8071.0,2764.0,3776.0,4498.0,3227.0,2431.0
13:31:54:056791,107,8103.0,2768.0,3712.0,4528.0,3257.0,2436.0
13:31:54:058829,108,8110.0,2739.0,3668.0,4472.0,3244.0,2405.0
13:31:54:060787,109,8168.0,2693.0,3620.0,4426.0,3205.0,2419.0
13:31:54:062829,110,8124.0,2637.0,3606.0,4394.0,3191.0,2391.0
13:31:54:064793,111,8085.0,2591.0,3574.0,4381.0,3202.0,2362.0
13:31:54:066915,112,8047.0,2583.0,3564.0,4380.0,3183.0,2401.0
13:31:54:068789,113,8030.0,2629.0,3592.0,4366.0,3193.0,2398.0
13:31:54:070834,114,8074.0,2645.0,3610.0,4380.0,3221.0,2403.0
13:31:54:072791,115,8067.0,2689.0,3610.0,4381.0,3214.0,2423.0
13:31:54:074831,116,8066.0,2744.0,3686.0,4439.0,3262.0,2440.0
13:31:54:076827,117,8090.0,2764.0,3716.0,4501.0,3231.0,2428.0
13:31:54:078833,118,8144.0,2732.0,3665.0,4466.0,3262.0,2420.0
13:31:54:080871,119,8133.0,2696.0,3626.0,4418.0,3196.0,2380.0
13:31:54:082309,120,8104.0,2646.0,3614.0,4391.0,3192.0,2381.0
13:31:54:084548,121,8084.0,2628.0,3600.0,4367.0,3219.0,2391.0
13:31:54:086833,122,8056.0,2627.0,3561.0,4379.0,3177.0,2379.0
13:31:54:088790,123,8032.0,2637.0,3569.0,4383.0,3220.0,2366.0
13:31:54:090271,124,8027.0,2632.0,3576.0,4391.0,3196.0,2379.0
13:31:54:092315,125,8053.0,2681.0,3603.0,4385.0,3199.0,2410.0
13:31:54:094355,126,8037.0,2764.0,3706.0,4486.0,3220.0,2431.0
13:31:54:096346,127,8075.0,2767.0,3714.0,4506.0,3219.0,2396.0
13:31:54:098349,128,8081.0,2724.0,3627.0,4449.0,3217.0,2429.0
13:31:54:100268,129,8109.0,2694.0,3612.0,4409.0,3216.0,2403.0
13:31:54:102785,130,8118.0,2664.0,3575.0,4393.0,3196.0,2393.0
13:31:54:104303,131,8123.0,2592.0,3582.0,4390.0,3188.0,2398.0
13:31:54:106482,132,8103.0,2631.0,3559.0,4376.0,3185.0,2363.0
13:31:54:108762,133,8090.0,2629.0,3567.0,4381.0,3186.0,2399.0
13:31:54:110808,134,8037.0,2648.0,3572.0,4394.0,3224.0,2409.0
13:31:54:112829,135,8007.0,2693.0,3610.0,4409.0,3198.0,2403.0
13:31:54:114305,136,7972.0,2759.0,3694.0,4464.0,3229.0,2417.0
13:31:54:116403,137,8129.0,2779.0,3723.0,4515.0,3232.0,2411.0
13:31:54:118769,138,8188.0,2728.0,3664.0,4470.0,3228.0,2401.0
13:31:54:120816,139,8165.0,2694.0,3626.0,4428.0,3214.0,2384.0
13:31:54:122302,140,8182.0,2645.0,3570.0,4384.0,3217.0,2406.0
13:31:54:124748,141,8134.0,2623.0,3541.0,4385.0,3184.0,2367.0
13:31:54:126988,142,8078.0,2600.0,3573.0,4381.0,3212.0,2367.0
13:31:54:128269,143,8071.0,2601.0,3578.0,4385.0,3182.0,2405.0
13:31:54:130514,144,8060.0,2655.0,3576.0,4396.0,3192.0,2383.0
13:31:54:132544,145,7978.0,2696.0,3619.0,4412.0,3207.0,2387.0
13:31:54:134659,146,8049.0,2741.0,3669.0,4466.0,3241.0,2437.0
13:31:54:136279,147,8080.0,2775.0,3716.0,4516.0,3232.0,2400.0
13:31:54:138400,148,8098.0,2742.0,3627.0,4446.0,3224.0,2397.0
13:31:54:140275,149,8123.0,2704.0,3624.0,4422.0,3231.0,2396.0
13:31:54:142267,150,8118.0,2653.0,3572.0,4397.0,3219.0,2383.0
13:31:54:144257,151,8171.0,2621.0,3586.0,4383.0,3184.0,2385.0
13:31:54:146376,152,8097.0,2601.0,3577.0,4393.0,3186.0,2413.0
13:31:54:148370,153,8074.0,2632.0,3569.0,4390.0,3193.0,2400.0
13:31:54:150290,154,8062.0,2653.0,3583.0,4409.0,3220.0,2406.0
13:31:54:152314,155,8038.0,2690.0,3622.0,4393.0,3231.0,2405.0
13:31:54:154266,156,8038.0,2765.0,3704.0,4484.0,3231.0,2407.0
13:31:54:156265,157,8084.0,2774.0,3714.0,4514.0,3260.0,2401.0
13:31:54:158311,158,8125.0,2748.0,3672.0,4472.0,3218.0,2413.0
13:31:54:161654,159,8144.0,2671.0,3608.0,4410.0,3235.0,2379.0
13:31:54:163135,160,8131.0,2644.0,3608.0,4382.0,3190.0,2376.0
13:31:54:164243,161,8133.0,2630.0,3562.0,4376.0,3218.0,2398.0
13:31:54:166327,162,8112.0,2620.0,3544.0,4356.0,3188.0,2402.0
13:31:54:168439,163,8105.0,2634.0,3568.0,4376.0,3230.0,2400.0
13:31:54:170315,164,8109.0,2596.0,3600.0,4376.0,3193.0,2379.0
13:31:54:172308,165,8112.0,2675.0,3596.0,4407.0,3208.0,2394.0
13:31:54:174265,166,8133.0,2764.0,3702.0,4476.0,3262.0,2429.0
13:31:54:176483,167,8133.0,2776.0,3720.0,4517.0,3243.0,2431.0
13:31:54:178281,168,8075.0,2741.0,3666.0,4475.0,3252.0,2399.0
13:31:54:180261,169,8088.0,2692.0,3620.0,4429.0,3226.0,2413.0
13:31:54:182520,170,8126.0,2633.0,3570.0,4401.0,3180.0,2364.0
13:31:54:184264,171,8110.0,2599.0,3566.0,4394.0,3181.0,2391.0
13:31:54:186319,172,8091.0,2616.0,3578.0,4376.0,3215.0,2401.0
13:31:54:188285,173,8066.0,2645.0,3606.0,4366.0,3188.0,2359.0
13:31:54:190668,174,8056.0,2640.0,3576.0,4388.0,3220.0,2407.0
13:31:54:192686,175,8070.0,2686.0,3601.0,4377.0,3204.0,2409.0
13:31:54:194402,176,8164.0,2759.0,3710.0,4475.0,3253.0,2430.0
13:31:54:196693,177,8108.0,2759.0,3711.0,4502.0,3258.0,2431.0
13:31:54:198389,178,8121.0,2737.0,3664.0,4464.0,3218.0,2392.0
13:31:54:200279,179,8114.0,2703.0,3626.0,4422.0,3200.0,2407.0
13:31:54:202693,180,8090.0,2616.0,3592.0,4374.0,3187.0,2357.0
13:31:54:204424,181,8117.0,2578.0,3568.0,4385.0,3200.0,2373.0
13:31:54:206404,182,8129.0,2621.0,3534.0,4383.0,3213.0,2375.0
13:31:54:208417,183,8087.0,2625.0,3562.0,4388.0,3198.0,2361.0
13:31:54:210362,184,8111.0,2636.0,3584.0,4379.0,3222.0,2403.0
13:31:54:212282,185,8104.0,2687.0,3606.0,4382.0,3185.0,2376.0
13:31:54:214328,186,8101.0,2759.0,3700.0,4460.0,3220.0,2431.0
13:31:54:216563,187,8103.0,2798.0,3726.0,4507.0,3232.0,2413.0
13:31:54:218313,188,8188.0,2741.0,3669.0,4471.0,3254.0,2420.0
13:31:54:220349,189,8207.0,2709.0,3606.0,4411.0,3200.0,2385.0
13:31:54:222268,190,8237.0,2645.0,3576.0,4396.0,3196.0,2371.0
13:31:54:224386,191,8178.0,2621.0,3576.0,4392.0,3203.0,2395.0
13:31:54:226701,192,8099.0,2576.0,3520.0,4357.0,3188.0,2367.0
13:31:54:228405,193,8052.0,2623.0,3582.0,4380.0,3188.0,2356.0
13:31:54:230339,194,8057.0,2629.0,3566.0,4383.0,3193.0,2365.0
13:31:54:232442,195,8075.0,2667.0,3602.0,4385.0,3207.0,2421.0
13:31:54:235050,196,8095.0,2755.0,3703.0,4473.0,3250.0,2428.0
13:31:54:236511,197,8111.0,2761.0,3711.0,4505.0,3262.0,2405.0
13:31:54:238582,198,8119.0,2735.0,3660.0,4466.0,3224.0,2424.0
13:31:54:240330,199,8088.0,2700.0,3610.0,4410.0,3204.0,2403.0
13:31:54:242310,200,8106.0,2652.0,3572.0,4396.0,3185.0,2361.0
13:31:54:244347,201,8116.0,2615.0,3566.0,4382.0,3189.0,2390.0
13:31:54:246307,202,8119.0,2623.0,3566.0,4389.0,3188.0,2395.0
13:31:54:248533,203,8118.0,2638.0,3566.0,4398.0,3226.0,2403.0
13:31:54:250661,204,8100.0,2649.0,3574.0,4376.0,3227.0,2379.0
13:31:54:252276,205,8082.0,2687.0,3603.0,4393.0,3206.0,2397.0
13:31:54:254747,206,8113.0,2707.0,3645.0,4420.0,3227.0,2420.0
13:31:54:256314,207,8135.0,2768.0,3710.0,4496.0,3263.0,2423.0
13:31:54:258266,208,8148.0,2740.0,3668.0,4470.0,3248.0,2395.0
13:31:54:260310,209,8163.0,2701.0,3626.0,4430.0,3212.0,2405.0
13:31:54:262307,210,8148.0,2635.0,3574.0,4404.0,3193.0,2383.0
13:31:54:264270,211,8109.0,2625.0,3556.0,4383.0,3178.0,2366.0
13:31:54:266400,212,8144.0,2606.0,3576.0,4386.0,3181.0,2381.0
13:31:54:268313,213,8120.0,2655.0,3596.0,4372.0,3184.0,2384.0
13:31:54:270274,214,8065.0,2644.0,3610.0,4374.0,3247.0,2367.0
13:31:54:272311,215,8073.0,2667.0,3626.0,4379.0,3239.0,2380.0
13:31:54:274265,216,8089.0,2733.0,3628.0,4432.0,3236.0,2435.0
13:31:54:276313,217,8113.0,2743.0,3694.0,4485.0,3228.0,2451.0
13:31:54:278837,218,8114.0,2743.0,3658.0,4456.0,3223.0,2413.0
13:31:54:280823,219,8097.0,2710.0,3607.0,4408.0,3208.0,2372.0
13:31:54:282344,220,8110.0,2644.0,3611.0,4375.0,3207.0,2377.0
13:31:54:285000,221,8092.0,2584.0,3574.0,4386.0,3189.0,2402.0
13:31:54:286809,222,8102.0,2630.0,3568.0,4381.0,3189.0,2361.0
13:31:54:288802,223,8076.0,2622.0,3578.0,4401.0,3210.0,2371.0
13:31:54:290878,224,8091.0,2649.0,3579.0,4373.0,3183.0,2371.0
13:31:54:292277,225,8081.0,2677.0,3596.0,4376.0,3202.0,2409.0
13:31:54:294768,226,8088.0,2757.0,3701.0,4473.0,3225.0,2431.0
13:31:54:296818,227,8132.0,2790.0,3720.0,4518.0,3270.0,2420.0
13:31:54:298245,228,8175.0,2735.0,3665.0,4474.0,3254.0,2399.0
13:31:54:300493,229,8111.0,2700.0,3620.0,4424.0,3208.0,2421.0
13:31:54:302750,230,8087.0,2644.0,3570.0,4402.0,3194.0,2360.0
13:31:54:304835,231,8133.0,2605.0,3580.0,4395.0,3176.0,2373.0
13:31:54:306754,232,8083.0,2623.0,3586.0,4363.0,3201.0,2359.0
13:31:54:308829,233,8090.0,2619.0,3594.0,4368.0,3190.0,2352.0
13:31:54:310752,234,8090.0,2636.0,3606.0,4364.0,3198.0,2401.0
13:31:54:312836,235,8084.0,2682.0,3572.0,4398.0,3204.0,2422.0
13:31:54:314949,236,8112.0,2759.0,3701.0,4470.0,3256.0,2373.0
13:31:54:316311,237,8122.0,2769.0,3718.0,4520.0,3233.0,2395.0
13:31:54:318801,238,8138.0,2743.0,3662.0,4470.0,3249.0,2429.0
13:31:54:320868,239,8055.0,2705.0,3611.0,4408.0,3209.0,2412.0
13:31:54:322269,240,8130.0,2649.0,3575.0,4402.0,3223.0,2387.0
13:31:54:324773,241,8133.0,2608.0,3582.0,4383.0,3188.0,2399.0
13:31:54:326835,242,8097.0,2606.0,3538.0,4385.0,3183.0,2376.0
13:31:54:328788,243,8114.0,2639.0,3574.0,4390.0,3182.0,2396.0
13:31:54:330982,244,8102.0,2647.0,3616.0,4378.0,3192.0,2369.0
13:31:54:332779,245,8027.0,2665.0,3592.0,4383.0,3212.0,2388.0
13:31:54:334826,246,7966.0,2761.0,3704.0,4463.0,3245.0,2399.0
13:31:54:336803,247,8124.0,2781.0,3725.0,4522.0,3232.0,2392.0
13:31:54:338821,248,8175.0,2734.0,3666.0,4468.0,3223.0,2407.0
13:31:54:340529,249,8176.0,2687.0,3609.0,4422.0,3210.0,2399.0
13:31:54:342599,250,8165.0,2641.0,3608.0,4367.0,3194.0,2378.0
13:31:54:344856,251,8142.0,2621.0,3583.0,4388.0,3212.0,2397.0
13:31:54:346755,252,8115.0,2641.0,3583.0,4380.0,3217.0,2365.0
13:31:54:348567,253,8098.0,2623.0,3583.0,4384.0,3190.0,2373.0
13:31:54:350802,254,8100.0,2647.0,3611.0,4375.0,3224.0,2391.0
13:31:54:352750,255,8110.0,2683.0,3605.0,4384.0,3186.0,2389.0
13:31:54:354832,0,8117.0,2761.0,3704.0,4475.0,3242.0,2427.0
13:31:54:356797,1,8154.0,2773.0,3716.0,4521.0,3258.0,2431.0
13:31:54:358825,2,8202.0,2740.0,3665.0,4465.0,3222.0,2431.0
13:31:54:360786,3,8162.0,2712.0,3621.0,4444.0,3219.0,2378.0
13:31:54:362757,4,8161.0,2652.0,3610.0,4382.0,3216.0,2421.0
13:31:54:364838,5,8137.0,2596.0,3578.0,4390.0,3186.0,2399.0
13:31:54:366798,6,8124.0,2618.0,3572.0,4384.0,3188.0,2357.0
13:31:54:368824,7,8119.0,2617.0,3580.0,4399.0,3188.0,2386.0
13:31:54:370795,8,8145.0,2645.0,3574.0,4395.0,3189.0,2373.0
13:31:54:372815,9,8121.0,2672.0,3604.0,4404.0,3215.0,2395.0
13:31:54:374791,10,8168.0,2750.0,3660.0,4441.0,3236.0,2420.0
13:31:54:376736,11,8145.0,2769.0,3711.0,4492.0,3230.0,2409.0
13:31:54:378847,12,8137.0,2735.0,3670.0,4464.0,3231.0,2431.0
13:31:54:380722,13,8146.0,2716.0,3612.0,4426.0,3200.0,2379.0
13:31:54:382709,14,8154.0,2645.0,3608.0,4385.0,3217.0,2374.0
13:31:54:384654,15,8158.0,2619.0,3576.0,4375.0,3208.0,2412.0
13:31:54:386740,16,8101.0,2589.0,3568.0,4387.0,3184.0,2369.0
13:31:54:388537,17,8075.0,2628.0,3566.0,4401.0,3192.0,2401.0
13:31:54:390898,18,8075.0,2647.0,3612.0,4380.0,3215.0,2375.0
13:31:54:393728,19,8078.0,2669.0,3628.0,4402.0,3217.0,2385.0
13:31:54:394284,20,8082.0,2745.0,3638.0,4419.0,3236.0,2410.0
13:31:54:396779,21,8134.0,2772.0,3714.0,4503.0,3244.0,2423.0
13:31:54:398879,22,8161.0,2739.0,3664.0,4464.0,3205.0,2427.0
13:31:54:400517,23,8162.0,2705.0,3632.0,4434.0,3203.0,2413.0
13:31:54:402577,24,8178.0,2655.0,3560.0,4409.0,3230.0,2397.0
13:31:54:404566,25,8131.0,2596.0,3582.0,4392.0,3180.0,2393.0
13:31:54:406835,26,8139.0,2622.0,3578.0,4381.0,3185.0,2392.0
13:31:54:408270,27,8079.0,2684.0,3564.0,4383.0,3178.0,2396.0
13:31:54:410696,28,8046.0,2657.0,3564.0,4398.0,3190.0,2370.0
13:31:54:412769,29,8081.0,2687.0,3610.0,4412.0,3198.0,2405.0
13:31:54:414826,30,8107.0,2756.0,3702.0,4479.0,3228.0,2417.0
13:31:54:416764,31,8156.0,2788.0,3716.0,4517.0,3234.0,2405.0
13:31:54:418822,32,8155.0,2732.0,3664.0,4470.0,3226.0,2431.0
13:31:54:420753,33,8171.0,2703.0,3624.0,4430.0,3240.0,2418.0
13:31:54:422829,34,8135.0,2576.0,3588.0,4396.0,3191.0,2392.0
13:31:54:424865,35,8142.0,2612.0,3562.0,4374.0,3217.0,2398.0
13:31:54:426707,36,8115.0,2623.0,3542.0,4382.0,3182.0,2369.0
13:31:54:428519,37,8104.0,2639.0,3572.0,4382.0,3204.0,2388.0
13:31:54:430912,38,8101.0,2665.0,3576.0,4385.0,3180.0,2399.0
13:31:54:432836,39,8099.0,2650.0,3600.0,4390.0,3201.0,2392.0
13:31:54:434797,40,8135.0,2758.0,3706.0,4474.0,3224.0,2417.0
13:31:54:436818,41,8143.0,2764.0,3711.0,4513.0,3241.0,2441.0
13:31:54:438774,42,8164.0,2735.0,3656.0,4463.0,3236.0,2418.0
13:31:54:440515,43,8127.0,2695.0,3620.0,4444.0,3208.0,2417.0
13:31:54:442730,44,8168.0,2652.0,3602.0,4388.0,3220.0,2405.0
13:31:54:445017,45,8150.0,2581.0,3560.0,4380.0,3210.0,2385.0
13:31:54:446751,46,8142.0,2630.0,3560.0,4380.0,3186.0,2369.0
13:31:54:448824,47,8170.0,2647.0,3614.0,4369.0,3188.0,2376.0
13:31:54:450828,48,8219.0,2649.0,3582.0,4390.0,3218.0,2407.0
13:31:54:452257,49,8084.0,2687.0,3602.0,4379.0,3230.0,2407.0
13:31:54:454753,50,8151.0,2786.0,3688.0,4439.0,3256.0,2408.0
13:31:54:456760,51,8142.0,2759.0,3715.0,4500.0,3230.0,2398.0
13:31:54:458833,52,8099.0,2717.0,3664.0,4460.0,3228.0,2409.0
13:31:54:460763,53,8144.0,2696.0,3620.0,4423.0,3204.0,2381.0
13:31:54:462830,54,8130.0,2648.0,3572.0,4389.0,3189.0,2385.0
13:31:54:464834,55,8107.0,2681.0,3598.0,4373.0,3176.0,2369.0
13:31:54:466795,56,8070.0,2634.0,3559.0,4378.0,3183.0,2397.0
13:31:54:468828,57,8070.0,2648.0,3626.0,4366.0,3210.0,2394.0
13:31:54:470645,58,8059.0,2649.0,3580.0,4391.0,3196.0,2374.0
13:31:54:472755,59,8020.0,2691.0,3616.0,4388.0,3224.0,2417.0
13:31:54:474834,60,8055.0,2765.0,3709.0,4476.0,3225.0,2429.0
13:31:54:476766,61,8031.0,2768.0,3730.0,4514.0,3213.0,2420.0
13:31:54:478959,62,8055.0,2727.0,3664.0,4468.0,3254.0,2418.0
13:31:54:480847,63,8086.0,2697.0,3626.0,4427.0,3246.0,2391.0
13:31:54:482761,64,8094.0,2646.0,3569.0,4400.0,3186.0,2397.0
13:31:54:484854,65,8069.0,2621.0,3583.0,4389.0,3181.0,2369.0
13:31:54:486790,66,8053.0,2590.0,3576.0,4393.0,3210.0,2371.0
13:31:54:488760,67,8037.0,2634.0,3568.0,4382.0,3189.0,2367.0
13:31:54:490821,68,8016.0,2635.0,3564.0,4388.0,3220.0,2380.0
13:31:54:492832,69,8054.0,2692.0,3594.0,4397.0,3233.0,2387.0
13:31:54:494862,70,8072.0,2753.0,3702.0,4475.0,3222.0,2407.0
13:31:54:496804,71,8090.0,2783.0,3711.0,4502.0,3225.0,2430.0
13:31:54:498824,72,8099.0,2730.0,3668.0,4465.0,3214.0,2397.0
13:31:54:500663,73,8109.0,2722.0,3618.0,4417.0,3191.0,2388.0
13:31:54:502348,74,8075.0,2614.0,3592.0,4382.0,3191.0,2371.0
13:31:54:504290,75,8069.0,2615.0,3572.0,4368.0,3183.0,2394.0
13:31:54:506339,76,8058.0,2600.0,3579.0,4370.0,3186.0,2399.0
13:31:54:508785,77,8073.0,2641.0,3583.0,4382.0,3228.0,2404.0
13:31:54:510837,78,8057.0,2654.0,3626.0,4393.0,3200.0,2393.0
13:31:54:512794,79,8071.0,2677.0,3598.0,4383.0,3207.0,2419.0
13:31:54:514790,80,8051.0,2750.0,3677.0,4440.0,3223.0,2431.0
13:31:54:517523,81,8063.0,2770.0,3711.0,4493.0,3225.0,2420.0
13:31:54:518588,82,8054.0,2733.0,3661.0,4460.0,3230.0,2403.0
13:31:54:520817,83,8105.0,2696.0,3611.0,4416.0,3232.0,2386.0
13:31:54:522854,84,8116.0,2652.0,3574.0,4391.0,3216.0,2370.0
13:31:54:524685,85,8086.0,2596.0,3581.0,4384.0,3176.0,2404.0
13:31:54:526834,86,8078.0,2632.0,3561.0,4379.0,3166.0,2374.0
13:31:54:528755,87,8031.0,2640.0,3568.0,4385.0,3168.0,2409.0
13:31:54:530726,88,8033.0,2663.0,3614.0,4379.0,3182.0,2365.0
13:31:54:532683,89,8027.0,2658.0,3580.0,4404.0,3199.0,2396.0
13:31:54:534835,90,8091.0,2738.0,3664.0,4441.0,3265.0,2433.0
13:31:54:536828,91,8104.0,2780.0,3710.0,4505.0,3244.0,2415.0
13:31:54:538227,92,8127.0,2723.0,3664.0,4467.0,3220.0,2409.0
13:31:54:540753,93,8139.0,2701.0,3614.0,4413.0,3238.0,2405.0
13:31:54:542828,94,8146.0,2652.0,3574.0,4397.0,3178.0,2397.0
13:31:54:544830,95,8101.0,2627.0,3605.0,4365.0,3180.0,2374.0
13:31:54:546238,96,8095.0,2632.0,3567.0,4372.0,3179.0,2383.0
13:31:54:548752,97,8128.0,2647.0,3570.0,4378.0,3170.0,2403.0
13:31:54:550833,98,8055.0,2644.0,3572.0,4388.0,3180.0,2363.0
13:31:54:552794,99,8079.0,2652.0,3583.0,4413.0,3204.0,2415.0
13:31:54:554822,100,8058.0,2740.0,3680.0,4466.0,3250.0,2411.0
13:31:54:556501,101,8081.0,2770.0,3720.0,4517.0,3249.0,2431.0
13:31:54:558763,102,8109.0,2736.0,3664.0,4464.0,3222.0,2418.0
13:31:54:560635,103,8114.0,2709.0,3598.0,4414.0,3207.0,2400.0
13:31:54:562760,104,8111.0,2654.0,3572.0,4393.0,3212.0,2401.0
13:31:54:564840,105,8104.0,2628.0,3564.0,4382.0,3182.0,2393.0
13:31:54:566760,106,8101.0,2612.0,3534.0,4385.0,3214.0,2375.0
13:31:54:568823,107,8098.0,2644.0,3576.0,4391.0,3191.0,2376.0
13:31:54:570757,108,8082.0,2645.0,3576.0,4391.0,3222.0,2400.0
13:31:54:572834,109,8059.0,2685.0,3606.0,4372.0,3238.0,2386.0
13:31:54:574748,110,8071.0,2756.0,3710.0,4474.0,3257.0,2419.0
13:31:54:576759,111,8081.0,2780.0,3711.0,4517.0,3216.0,2421.0
13:31:54:578862,112,8140.0,2735.0,3666.0,4464.0,3251.0,2403.0
13:31:54:580269,113,8163.0,2727.0,3602.0,4410.0,3215.0,2407.0
13:31:54:582763,114,8153.0,2653.0,3572.0,4398.0,3238.0,2410.0
13:31:54:584819,115,8159.0,2601.0,3582.0,4397.0,3213.0,2384.0
13:31:54:586769,116,8129.0,2617.0,3578.0,4400.0,3186.0,2386.0
13:31:54:588840,117,8105.0,2616.0,3582.0,4373.0,3178.0,2385.0
13:31:54:590898,118,8094.0,2619.0,3551.0,4389.0,3213.0,2396.0
13:31:54:592551,119,8110.0,2689.0,3608.0,4390.0,3190.0,2399.0
13:31:54:594474,120,8090.0,2756.0,3714.0,4485.0,3253.0,2406.0
13:31:54:596841,121,8132.0,2776.0,3718.0,4520.0,3229.0,2404.0
13:31:54:598789,122,8161.0,2735.0,3670.0,4469.0,3244.0,2415.0
13:31:54:600829,123,8166.0,2705.0,3614.0,4415.0,3239.0,2408.0
13:31:54:602798,124,8161.0,2641.0,3608.0,4376.0,3190.0,2376.0
13:31:54:604809,125,8134.0,2598.0,3582.0,4375.0,3197.0,2403.0
13:31:54:606773,126,8116.0,2621.0,3576.0,4376.0,3216.0,2384.0
13:31:54:608862,127,8148.0,2641.0,3573.0,4388.0,3209.0,2399.0
13:31:54:610668,128,8123.0,2658.0,3624.0,4396.0,3185.0,2367.0
13:31:54:612838,129,8077.0,2649.0,3581.0,4413.0,3240.0,2420.0
13:31:54:614806,130,8093.0,2746.0,3674.0,4467.0,3223.0,2433.0
13:31:54:616856,131,8068.0,2786.0,3725.0,4524.0,3230.0,2419.0
13:31:54:618270,132,8147.0,2736.0,3666.0,4466.0,3216.0,2431.0
13:31:54:620806,133,8154.0,2719.0,3640.0,4433.0,3214.0,2394.0
13:31:54:622498,134,8169.0,2631.0,3568.0,4404.0,3220.0,2389.0
13:31:54:624837,135,8130.0,2604.0,3576.0,4389.0,3197.0,2388.0
13:31:54:626760,136,8123.0,2599.0,3576.0,4377.0,3185.0,2393.0
13:31:54:628820,137,8091.0,2654.0,3607.0,4370.0,3185.0,2365.0
13:31:54:630823,138,8085.0,2612.0,3590.0,4373.0,3190.0,2400.0
13:31:54:632824,139,8076.0,2673.0,3600.0,4387.0,3206.0,2373.0
13:31:54:634719,140,8104.0,2761.0,3705.0,4470.0,3259.0,2423.0
13:31:54:636302,141,8124.0,2772.0,3714.0,4507.0,3251.0,2401.0
13:31:54:638740,142,8153.0,2734.0,3626.0,4443.0,3215.0,2415.0
13:31:54:640731,143,8167.0,2700.0,3622.0,4415.0,3216.0,2411.0
13:31:54:642824,144,8172.0,2644.0,3599.0,4381.0,3200.0,2377.0
13:31:54:644796,145,8180.0,2629.0,3564.0,4379.0,3190.0,2404.0
13:31:54:646865,146,8096.0,2620.0,3568.0,4388.0,3218.0,2365.0
13:31:54:648370,147,8082.0,2617.0,3578.0,4393.0,3218.0,2393.0
13:31:54:650643,148,8086.0,2650.0,3610.0,4378.0,3189.0,2379.0
13:31:54:652301,149,8099.0,2674.0,3634.0,4380.0,3230.0,2416.0
13:31:54:654315,150,8086.0,2753.0,3705.0,4469.0,3247.0,2404.0
13:31:54:656258,151,8125.0,2782.0,3721.0,4536.0,3236.0,2437.0
13:31:54:658267,152,8174.0,2748.0,3662.0,4438.0,3256.0,2399.0
13:31:54:660306,153,8170.0,2703.0,3612.0,4410.0,3234.0,2423.0
13:31:54:662266,154,8158.0,2623.0,3546.0,4390.0,3193.0,2403.0
13:31:54:664263,155,8094.0,2618.0,3579.0,4396.0,3187.0,2359.0
13:31:54:666546,156,8061.0,2604.0,3570.0,4381.0,3184.0,2367.0
13:31:54:668779,157,8077.0,2626.0,3552.0,4388.0,3213.0,2395.0
13:31:54:670829,158,8095.0,2650.0,3569.0,4392.0,3193.0,2393.0
13:31:54:672828,159,8140.0,2676.0,3600.0,4378.0,3247.0,2407.0
13:31:54:674718,160,8104.0,2755.0,3700.0,4474.0,3250.0,2405.0
13:31:54:676274,161,8056.0,2805.0,3711.0,4502.0,3228.0,2422.0
13:31:54:678714,162,8065.0,2733.0,3663.0,4455.0,3223.0,2395.0
13:31:54:680860,163,8107.0,2705.0,3626.0,4428.0,3235.0,2383.0
13:31:54:682361,164,8103.0,2644.0,3608.0,4388.0,3198.0,2405.0
13:31:54:684981,165,8114.0,2607.0,3574.0,4377.0,3198.0,2389.0
13:31:54:686913,166,8062.0,2614.0,3576.0,4382.0,3211.0,2396.0
13:31:54:688691,167,8056.0,2644.0,3561.0,4396.0,3177.0,2367.0
13:31:54:690726,168,8058.0,2609.0,3592.0,4375.0,3183.0,2353.0
13:31:54:692693,169,8075.0,2636.0,3582.0,4413.0,3235.0,2413.0
13:31:54:694760,170,8085.0,2748.0,3661.0,4444.0,3254.0,2419.0
13:31:54:696837,171,8082.0,2764.0,3690.0,4482.0,3270.0,2431.0
13:31:54:698559,172,8111.0,2741.0,3668.0,4460.0,3212.0,2399.0
13:31:54:700763,173,8077.0,2700.0,3621.0,4426.0,3208.0,2414.0
13:31:54:702836,174,8058.0,2648.0,3566.0,4406.0,3216.0,2387.0
13:31:54:704824,175,8041.0,2623.0,3542.0,4346.0,3170.0,2381.0
13:31:54:706797,176,8067.0,2622.0,3576.0,4391.0,3177.0,2370.0
13:31:54:708823,177,8068.0,2635.0,3554.0,4388.0,3189.0,2361.0
13:31:54:710834,178,8052.0,2623.0,3547.0,4386.0,3188.0,2385.0
13:31:54:712738,179,8084.0,2681.0,3604.0,4381.0,3231.0,2387.0
13:31:54:714467,180,8069.0,2760.0,3704.0,4471.0,3254.0,2433.0
13:31:54:716752,181,8130.0,2791.0,3724.0,4528.0,3263.0,2427.0
13:31:54:718822,182,8127.0,2730.0,3664.0,4473.0,3220.0,2423.0
13:31:54:720793,183,8147.0,2703.0,3622.0,4431.0,3210.0,2393.0
13:31:54:722842,184,8087.0,2637.0,3611.0,4397.0,3188.0,2361.0
13:31:54:724873,185,8117.0,2598.0,3568.0,4380.0,3186.0,2401.0
13:31:54:726270,186,8073.0,2616.0,3538.0,4364.0,3177.0,2359.0
13:31:54:728842,187,8103.0,2595.0,3578.0,4381.0,3210.0,2397.0
13:31:54:730308,188,8120.0,2655.0,3570.0,4386.0,3189.0,2403.0
13:31:54:732312,189,8117.0,2681.0,3603.0,4386.0,3203.0,2380.0
13:31:54:734271,190,8081.0,2753.0,3661.0,4449.0,3222.0,2409.0
13:31:54:736312,191,8104.0,2770.0,3704.0,4501.0,3228.0,2414.0
13:31:54:738359,192,8131.0,2733.0,3656.0,4457.0,3252.0,2424.0
13:31:54:740305,193,8130.0,2696.0,3630.0,4428.0,3242.0,2393.0
13:31:54:742285,194,8126.0,2642.0,3568.0,4401.0,3204.0,2403.0
13:31:54:744492,195,8096.0,2630.0,3558.0,4382.0,3196.0,2390.0
13:31:54:746842,196,8039.0,2623.0,3560.0,4393.0,3186.0,2378.0
13:31:54:748748,197,8044.0,2614.0,3583.0,4382.0,3211.0,2401.0
13:31:54:750430,198,8082.0,2655.0,3611.0,4383.0,3195.0,2367.0
13:31:54:752735,199,8049.0,2661.0,3583.0,4412.0,3230.0,2393.0
13:31:54:754699,200,8050.0,2753.0,3692.0,4449.0,3263.0,2422.0
13:31:54:756856,201,8119.0,2772.0,3716.0,4506.0,3257.0,2427.0
13:31:54:758266,202,8121.0,2732.0,3662.0,4468.0,3252.0,2425.0
13:31:54:760747,203,8151.0,2706.0,3610.0,4415.0,3234.0,2396.0
13:31:54:762828,204,8112.0,2655.0,3574.0,4398.0,3202.0,2397.0
13:31:54:764823,205,8093.0,2601.0,3580.0,4386.0,3196.0,2372.0
13:31:54:766749,206,8056.0,2581.0,3566.0,4382.0,3178.0,2386.0
13:31:54:768949,207,8056.0,2636.0,3566.0,4391.0,3186.0,2373.0
13:31:54:770869,208,8051.0,2668.0,3608.0,4359.0,3201.0,2367.0
13:31:54:772784,209,8059.0,2653.0,3583.0,4407.0,3202.0,2406.0
13:31:54:774273,210,8064.0,2737.0,3662.0,4470.0,3236.0,2433.0
13:31:54:776568,211,8071.0,2776.0,3725.0,4510.0,3268.0,2414.0
13:31:54:778621,212,8084.0,2736.0,3620.0,4452.0,3218.0,2391.0
13:31:54:780664,213,8143.0,2702.0,3625.0,4421.0,3208.0,2399.0
13:31:54:782831,214,8149.0,2648.0,3604.0,4391.0,3194.0,2363.0
13:31:54:784659,215,8120.0,2604.0,3560.0,4378.0,3188.0,2369.0
13:31:54:786745,216,8089.0,2597.0,3580.0,4381.0,3183.0,2396.0
13:31:54:788715,217,8102.0,2628.0,3609.0,4366.0,3224.0,2391.0
13:31:54:790893,218,8086.0,2647.0,3610.0,4372.0,3199.0,2399.0
13:31:54:792806,219,8034.0,2673.0,3598.0,4370.0,3231.0,2401.0
13:31:54:794830,220,8020.0,2760.0,3700.0,4464.0,3208.0,2394.0
13:31:54:796268,221,8070.0,2778.0,3720.0,4510.0,3231.0,2395.0
13:31:54:798735,222,8093.0,2738.0,3664.0,4468.0,3253.0,2404.0
13:31:54:800702,223,8114.0,2704.0,3606.0,4408.0,3242.0,2407.0
13:31:54:802701,224,8119.0,2640.0,3572.0,4398.0,3191.0,2413.0
13:31:54:804659,225,8110.0,2616.0,3583.0,4385.0,3186.0,2357.0
13:31:54:806561,226,8046.0,2598.0,3566.0,4386.0,3177.0,2399.0
13:31:54:808650,227,8052.0,2629.0,3554.0,4380.0,3210.0,2393.0
13:31:54:810798,228,8099.0,2645.0,3614.0,4361.0,3183.0,2366.0
13:31:54:812811,229,8111.0,2642.0,3578.0,4388.0,3232.0,2410.0
13:31:54:814793,230,8054.0,2747.0,3640.0,4422.0,3258.0,2430.0
13:31:54:816826,231,8070.0,2769.0,3710.0,4492.0,3263.0,2431.0
13:31:54:818794,232,8110.0,2733.0,3666.0,4466.0,3252.0,2427.0
13:31:54:820798,233,8092.0,2716.0,3608.0,4409.0,3203.0,2390.0
13:31:54:822684,234,8100.0,2646.0,3580.0,4410.0,3208.0,2397.0
13:31:54:824866,235,8063.0,2625.0,3599.0,4383.0,3204.0,2395.0
13:31:54:826264,236,8049.0,2622.0,3541.0,4361.0,3195.0,2397.0
13:31:54:828416,237,8008.0,2645.0,3568.0,4381.0,3188.0,2371.0
13:31:54:830409,238,8052.0,2655.0,3617.0,4395.0,3199.0,2360.0
13:31:54:832564,239,8045.0,2659.0,3582.0,4386.0,3231.0,2402.0
13:31:54:834440,240,8072.0,2748.0,3624.0,4418.0,3220.0,2426.0
13:31:54:836396,241,8110.0,2776.0,3716.0,4499.0,3236.0,2427.0
13:31:54:838357,242,8146.0,2739.0,3670.0,4468.0,3251.0,2428.0
13:31:54:840310,243,8124.0,2702.0,3612.0,4415.0,3237.0,2411.0
13:31:54:842394,244,8150.0,2637.0,3574.0,4400.0,3226.0,2377.0
13:31:54:844387,245,8068.0,2624.0,3554.0,4383.0,3175.0,2385.0
13:31:54:846418,246,8093.0,2629.0,3597.0,4367.0,3178.0,2351.0
13:31:54:848387,247,8115.0,2629.0,3608.0,4363.0,3183.0,2373.0
13:31:54:850395,248,8130.0,2653.0,3576.0,4388.0,3203.0,2363.0
13:31:54:852847,249,8077.0,2664.0,3624.0,4382.0,3199.0,2413.0
13:31:54:854450,250,8085.0,2757.0,3700.0,4478.0,3233.0,2424.0
13:31:54:856407,251,8091.0,2778.0,3754.0,4506.0,3252.0,2415.0
13:31:54:858369,252,8113.0,2734.0,3683.0,4460.0,3247.0,2394.0
13:31:54:860368,253,8086.0,2708.0,3608.0,4432.0,3205.0,2395.0
13:31:54:862451,254,8113.0,2652.0,3572.0,4400.0,3214.0,2371.0
13:31:54:864278,255,8120.0,2594.0,3570.0,4388.0,3180.0,2408.0
13:31:54:866358,0,8115.0,2619.0,3582.0,4399.0,3177.0,2389.0
13:31:54:868557,1,8113.0,2641.0,3562.0,4389.0,3179.0,2386.0
13:31:54:870385,2,8088.0,2644.0,3608.0,4381.0,3176.0,2402.0
13:31:54:872384,3,8118.0,2684.0,3600.0,4380.0,3196.0,2394.0
13:31:54:874329,4,8108.0,2749.0,3662.0,4434.0,3247.0,2409.0
13:31:54:876434,5,8115.0,2780.0,3732.0,4509.0,3232.0,2431.0
13:31:54:878336,6,8094.0,2728.0,3665.0,4467.0,3258.0,2417.0
13:31:54:880339,7,8155.0,2706.0,3612.0,4414.0,3229.0,2397.0
13:31:54:882488,8,8197.0,2641.0,3614.0,4382.0,3221.0,2393.0
13:31:54:884434,9,8134.0,2615.0,3566.0,4380.0,3179.0,2397.0
13:31:54:886386,10,8089.0,2623.0,3578.0,4372.0,3185.0,2376.0
13:31:54:888417,11,8080.0,2640.0,3568.0,4387.0,3206.0,2377.0
13:31:54:890423,12,8086.0,2642.0,3576.0,4392.0,3218.0,2404.0
13:31:54:892450,13,8070.0,2685.0,3604.0,4386.0,3204.0,2413.0
13:31:54:894716,14,8042.0,2767.0,3704.0,4463.0,3233.0,2431.0
13:31:54:896526,15,8096.0,2780.0,3725.0,4518.0,3230.0,2424.0
13:31:54:898451,16,8161.0,2738.0,3664.0,4457.0,3249.0,2429.0
13:31:54:900524,17,8155.0,2717.0,3618.0,4415.0,3193.0,2402.0
13:31:54:902401,18,8099.0,2654.0,3569.0,4395.0,3190.0,2391.0
13:31:54:904347,19,8123.0,2634.0,3568.0,4388.0,3215.0,2388.0
13:31:54:906365,20,8171.0,2629.0,3602.0,4358.0,3183.0,2395.0
13:31:54:908407,21,8131.0,2631.0,3560.0,4383.0,3212.0,2383.0
13:31:54:910368,22,8106.0,2660.0,3578.0,4384.0,3200.0,2424.0
13:31:54:912313,23,8104.0,2686.0,3626.0,4386.0,3201.0,2402.0
13:31:54:914307,24,8118.0,2756.0,3704.0,4471.0,3253.0,2437.0
13:31:54:916440,25,8127.0,2784.0,3720.0,4511.0,3262.0,2399.0
13:31:54:918410,26,8142.0,2736.0,3668.0,4464.0,3241.0,2396.0
13:31:54:920348,27,8151.0,2702.0,3623.0,4429.0,3212.0,2417.0
13:31:54:922367,28,8174.0,2634.0,3609.0,4391.0,3197.0,2401.0
13:31:54:924396,29,8133.0,2592.0,3576.0,4379.0,3199.0,2376.0
13:31:54:926373,30,8091.0,2596.0,3581.0,4389.0,3202.0,2371.0
13:31:54:928317,31,8054.0,2615.0,3590.0,4381.0,3213.0,2367.0
13:31:54:930339,32,8081.0,2637.0,3608.0,4356.0,3219.0,2403.0
13:31:54:932449,33,8071.0,2671.0,3597.0,4378.0,3198.0,2395.0
13:31:54:934375,34,8052.0,2749.0,3672.0,4435.0,3224.0,2417.0
13:31:54:936424,35,8110.0,2776.0,3715.0,4510.0,3235.0,2421.0
13:31:54:938418,36,8229.0,2740.0,3670.0,4466.0,3250.0,2423.0
13:31:54:940420,37,8198.0,2700.0,3627.0,4427.0,3240.0,2391.0
13:31:54:942397,38,8153.0,2644.0,3566.0,4405.0,3191.0,2401.0
13:31:54:944334,39,8149.0,2623.0,3544.0,4384.0,3225.0,2386.0
13:31:54:946374,40,8182.0,2630.0,3583.0,4375.0,3182.0,2381.0
13:31:54:948383,41,8084.0,2646.0,3611.0,4376.0,3217.0,2402.0
13:31:54:950401,42,8068.0,2642.0,3572.0,4388.0,3202.0,2394.0
13:31:54:952428,43,8074.0,2667.0,3596.0,4412.0,3202.0,2378.0
13:31:54:954385,44,8091.0,2759.0,3677.0,4464.0,3249.0,2404.0
13:31:54:956341,45,8081.0,2767.0,3710.0,4500.0,3239.0,2437.0
13:31:54:958369,46,8082.0,2745.0,3664.0,4461.0,3226.0,2394.0
13:31:54:960362,47,8141.0,2712.0,3646.0,4413.0,3202.0,2413.0
13:31:54:962309,48,8141.0,2645.0,3574.0,4403.0,3192.0,2373.0
13:31:54:964360,49,8129.0,2632.0,3562.0,4379.0,3212.0,2390.0
13:31:54:966403,50,8125.0,2630.0,3561.0,4378.0,3180.0,2389.0
13:31:54:968454,51,8149.0,2650.0,3572.0,4393.0,3215.0,2396.0
13:31:54:970300,52,8092.0,2660.0,3582.0,4396.0,3218.0,2380.0
13:31:54:972434,53,8060.0,2686.0,3608.0,4382.0,3229.0,2423.0
13:31:54:974372,54,8043.0,2753.0,3702.0,4478.0,3227.0,2428.0
13:31:54:976371,55,8082.0,2765.0,3717.0,4509.0,3232.0,2401.0
13:31:54:978460,56,8112.0,2725.0,3662.0,4462.0,3216.0,2403.0
13:31:54:980346,57,8122.0,2714.0,3600.0,4410.0,3214.0,2421.0
13:31:54:982342,58,8091.0,2636.0,3604.0,4388.0,3194.0,2397.0
13:31:54:984364,59,8068.0,2621.0,3576.0,4374.0,3198.0,2405.0
13:31:54:986356,60,8103.0,2600.0,3614.0,4372.0,3182.0,2393.0
13:31:54:988292,61,8103.0,2647.0,3572.0,4381.0,3223.0,2383.0
13:31:54:990349,62,8089.0,2657.0,3568.0,4390.0,3199.0,2383.0
13:31:54:992468,63,8089.0,2681.0,3599.0,4378.0,3203.0,2383.0
13:31:54:994372,64,8066.0,2750.0,3666.0,4437.0,3223.0,2417.0
13:31:54:996362,65,8092.0,2772.0,3714.0,4502.0,3274.0,2436.0
13:31:54:998375,66,8086.0,2747.0,3681.0,4468.0,3250.0,2409.0
13:31:55:000381,67,8119.0,2706.0,3610.0,4418.0,3205.0,2390.0
13:31:55:002444,68,8090.0,2644.0,3572.0,4388.0,3214.0,2367.0
13:31:55:004380,69,8142.0,2591.0,3581.0,4391.0,3204.0,2365.0
13:31:55:006388,70,8119.0,2600.0,3570.0,4388.0,3204.0,2374.0
13:31:55:008406,71,8111.0,2637.0,3571.0,4387.0,3204.0,2397.0
13:31:55:010370,72,8066.0,2653.0,3593.0,4397.0,3181.0,2373.0
13:31:55:012341,73,8084.0,2668.0,3594.0,4412.0,3223.0,2391.0
13:31:55:014382,74,8063.0,2748.0,3670.0,4440.0,3236.0,2404.0
13:31:55:016303,75,8105.0,2765.0,3706.0,4498.0,3258.0,2431.0
13:31:55:018442,76,8090.0,2702.0,3630.0,4457.0,3248.0,2436.0
13:31:55:020397,77,8096.0,2709.0,3649.0,4415.0,3236.0,2426.0
13:31:55:022408,78,8045.0,2645.0,3620.0,4402.0,3189.0,2399.0
13:31:55:024454,79,8075.0,2620.0,3583.0,4387.0,3210.0,2399.0
13:31:55:026485,80,8083.0,2623.0,3582.0,4374.0,3183.0,2385.0
13:31:55:028397,81,8074.0,2643.0,3602.0,4376.0,3184.0,2402.0
13:31:55:030407,82,8057.0,2636.0,3570.0,4385.0,3210.0,2408.0
13:31:55:032391,83,8060.0,2674.0,3596.0,4394.0,3239.0,2406.0
13:31:55:034354,84,8053.0,2754.0,3700.0,4453.0,3236.0,2440.0
13:31:55:036336,85,8086.0,2756.0,3716.0,4512.0,3229.0,2403.0
13:31:55:038562,86,8116.0,2731.0,3631.0,4459.0,3217.0,2405.0
13:31:55:040524,87,8149.0,2705.0,3606.0,4405.0,3214.0,2412.0
13:31:55:042399,88,8098.0,2645.0,3556.0,4388.0,3212.0,2365.0
13:31:55:044446,89,8098.0,2604.0,3568.0,4380.0,3211.0,2378.0
13:31:55:046393,90,8073.0,2629.0,3602.0,4370.0,3184.0,2354.0
13:31:55:048841,91,8016.0,2620.0,3578.0,4384.0,3222.0,2404.0
13:31:55:050405,92,8042.0,2649.0,3570.0,4396.0,3188.0,2377.0
13:31:55:052657,93,8044.0,2683.0,3598.0,4409.0,3201.0,2387.0
13:31:55:054407,94,8039.0,2732.0,3683.0,4442.0,3206.0,2399.0
13:31:55:056604,95,8062.0,2773.0,3716.0,4505.0,3228.0,2410.0
13:31:55:058402,96,8091.0,2734.0,3662.0,4464.0,3257.0,2391.0
13:31:55:060452,97,8128.0,2709.0,3610.0,4415.0,3209.0,2405.0
13:31:55:062418,98,8159.0,2660.0,3574.0,4393.0,3193.0,2359.0
13:31:55:064386,99,8132.0,2598.0,3570.0,4394.0,3197.0,2403.0
13:31:55:066618,100,8131.0,2617.0,3568.0,4388.0,3221.0,2375.0
13:31:55:068643,101,8103.0,2647.0,3570.0,4390.0,3215.0,2391.0
13:31:55:070700,102,8108.0,2655.0,3577.0,4398.0,3202.0,2405.0
13:31:55:072399,103,8094.0,2672.0,3592.0,4404.0,3237.0,2409.0
13:31:55:074351,104,8083.0,2767.0,3698.0,4474.0,3220.0,2424.0
13:31:55:076432,105,8156.0,2782.0,3726.0,4516.0,3236.0,2418.0
13:31:55:078399,106,8172.0,2743.0,3680.0,4477.0,3212.0,2421.0
13:31:55:080437,107,8131.0,2705.0,3611.0,4417.0,3211.0,2385.0
13:31:55:082390,108,8083.0,2634.0,3568.0,4401.0,3199.0,2368.0
13:31:55:084332,109,8118.0,2596.0,3576.0,4390.0,3187.0,2371.0
13:31:55:086424,110,8100.0,2627.0,3599.0,4368.0,3163.0,2390.0
13:31:55:088404,111,8077.0,2645.0,3566.0,4374.0,3169.0,2395.0
13:31:55:090328,112,8040.0,2656.0,3566.0,4395.0,3188.0,2355.0
13:31:55:092399,113,8023.0,2663.0,3598.0,4379.0,3197.0,2399.0
13:31:55:094541,114,8025.0,2751.0,3678.0,4436.0,3256.0,2405.0
13:31:55:096505,115,8054.0,2774.0,3711.0,4496.0,3252.0,2431.0
13:31:55:098599,116,8097.0,2745.0,3674.0,4459.0,3250.0,2440.0
13:31:55:100355,117,8135.0,2718.0,3612.0,4412.0,3236.0,2383.0
13:31:55:102798,118,8054.0,2617.0,3583.0,4404.0,3219.0,2403.0
13:31:55:104355,119,8101.0,2610.0,3569.0,4360.0,3211.0,2399.0
13:31:55:106410,120,8120.0,2628.0,3635.0,4362.0,3206.0,2367.0
13:31:55:108460,121,8118.0,2617.0,3572.0,4390.0,3203.0,2371.0
13:31:55:110363,122,8088.0,2641.0,3572.0,4380.0,3203.0,2372.0
13:31:55:112441,123,8093.0,2670.0,3642.0,4381.0,3196.0,2404.0
13:31:55:114683,124,8077.0,2753.0,3688.0,4432.0,3209.0,2404.0
13:31:55:116300,125,8113.0,2791.0,3724.0,4512.0,3260.0,2411.0
13:31:55:118470,126,8122.0,2736.0,3669.0,4462.0,3219.0,2425.0
13:31:55:120427,127,8133.0,2710.0,3612.0,4415.0,3216.0,2383.0
13:31:55:122324,128,8129.0,2656.0,3570.0,4391.0,3206.0,2367.0
13:31:55:124929,129,8116.0,2568.0,3562.0,4387.0,3198.0,2396.0
13:31:55:126381,130,8108.0,2622.0,3530.0,4383.0,3184.0,2403.0
13:31:55:128453,131,8103.0,2640.0,3616.0,4375.0,3190.0,2393.0
13:31:55:130615,132,8046.0,2637.0,3604.0,4381.0,3218.0,2384.0
13:31:55:132337,133,8062.0,2660.0,3590.0,4393.0,3191.0,2377.0
13:31:55:134507,134,8112.0,2775.0,3678.0,4439.0,3256.0,2433.0
13:31:55:136584,135,8118.0,2775.0,3711.0,4501.0,3228.0,2433.0
13:31:55:138398,136,8101.0,2736.0,3665.0,4466.0,3250.0,2419.0
13:31:55:140528,137,8099.0,2711.0,3626.0,4414.0,3232.0,2392.0
13:31:55:142558,138,8090.0,2652.0,3566.0,4402.0,3219.0,2399.0
13:31:55:144530,139,8121.0,2629.0,3566.0,4379.0,3199.0,2381.0
13:31:55:146387,140,8100.0,2629.0,3563.0,4378.0,3191.0,2395.0
13:31:55:148388,141,8095.0,2611.0,3577.0,4386.0,3192.0,2385.0
13:31:55:150405,142,8066.0,2634.0,3608.0,4391.0,3185.0,2365.0
13:31:55:152322,143,8075.0,2649.0,3577.0,4399.0,3237.0,2381.0
13:31:55:154422,144,8040.0,2743.0,3680.0,4433.0,3248.0,2413.0
13:31:55:156399,145,8089.0,2793.0,3714.0,4504.0,3269.0,2425.0
13:31:55:158535,146,8136.0,2751.0,3643.0,4453.0,3219.0,2387.0
13:31:55:160351,147,8136.0,2702.0,3604.0,4409.0,3225.0,2377.0
13:31:55:162382,148,8146.0,2648.0,3568.0,4400.0,3194.0,2389.0
13:31:55:164713,149,8134.0,2621.0,3581.0,4383.0,3215.0,2382.0
13:31:55:166918,150,8130.0,2620.0,3578.0,4398.0,3209.0,2369.0
13:31:55:168315,151,8041.0,2621.0,3588.0,4368.0,3188.0,2395.0
13:31:55:170328,152,8038.0,2651.0,3570.0,4415.0,3192.0,2380.0
13:31:55:172535,153,8073.0,2687.0,3604.0,4383.0,3198.0,2377.0
13:31:55:174417,154,8072.0,2740.0,3676.0,4463.0,3242.0,2443.0
13:31:55:176519,155,8126.0,2788.0,3706.0,4510.0,3234.0,2408.0
13:31:55:178300,156,8107.0,2720.0,3664.0,4468.0,3216.0,2417.0
13:31:55:180416,157,8110.0,2709.0,3608.0,4414.0,3229.0,2421.0
13:31:55:182399,158,8151.0,2652.0,3576.0,4397.0,3199.0,2389.0
13:31:55:184570,159,8133.0,2626.0,3601.0,4372.0,3217.0,2414.0
13:31:55:186579,160,8052.0,2622.0,3581.0,4376.0,3211.0,2393.0
13:31:55:188513,161,8086.0,2645.0,3576.0,4379.0,3205.0,2379.0
13:31:55:190325,162,8112.0,2686.0,3576.0,4392.0,3194.0,2394.0
13:31:55:192345,163,8089.0,2678.0,3604.0,4385.0,3235.0,2398.0
13:31:55:194350,164,8084.0,2751.0,3669.0,4435.0,3254.0,2423.0
13:31:55:196349,165,8081.0,2768.0,3714.0,4509.0,3215.0,2443.0
13:31:55:198421,166,8111.0,2740.0,3664.0,4472.0,3256.0,2401.0
13:31:55:200528,167,8119.0,2703.0,3595.0,4445.0,3250.0,2386.0
13:31:55:202340,168,8153.0,2646.0,3608.0,4394.0,3178.0,2407.0
13:31:55:204337,169,8146.0,2630.0,3564.0,4376.0,3173.0,2366.0
13:31:55:206418,170,8141.0,2614.0,3578.0,4387.0,3172.0,2383.0
13:31:55:208368,171,8110.0,2646.0,3574.0,4379.0,3189.0,2365.0
13:31:55:210526,172,8084.0,2641.0,3562.0,4396.0,3220.0,2409.0
13:31:55:212468,173,8071.0,2682.0,3598.0,4397.0,3218.0,2383.0
13:31:55:214583,174,8131.0,2746.0,3664.0,4460.0,3266.0,2409.0
13:31:55:216509,175,8163.0,2772.0,3701.0,4501.0,3250.0,2428.0
13:31:55:218379,176,8129.0,2728.0,3664.0,4449.0,3219.0,2420.0
13:31:55:220425,177,8143.0,2703.0,3614.0,4407.0,3190.0,2413.0
13:31:55:222435,178,8165.0,2650.0,3578.0,4410.0,3229.0,2397.0
13:31:55:224398,179,8218.0,2631.0,3602.0,4356.0,3206.0,2371.0
13:31:55:226446,180,8101.0,2580.0,3575.0,4380.0,3208.0,2398.0
13:31:55:228375,181,8050.0,2637.0,3560.0,4381.0,3183.0,2375.0
13:31:55:230324,182,8062.0,2656.0,3598.0,4371.0,3189.0,2403.0
13:31:55:232314,183,8082.0,2672.0,3599.0,4376.0,3226.0,2382.0
13:31:55:234373,184,8079.0,2743.0,3665.0,4433.0,3247.0,2395.0
13:31:55:236310,185,8153.0,2769.0,3708.0,4496.0,3258.0,2392.0
13:31:55:238499,186,8172.0,2736.0,3661.0,4465.0,3225.0,2395.0
13:31:55:240321,187,8144.0,2703.0,3601.0,4422.0,3214.0,2417.0
13:31:55:242354,188,8138.0,2648.0,3608.0,4383.0,3192.0,2399.0
13:31:55:244311,189,8120.0,2658.0,3556.0,4381.0,3186.0,2397.0
13:31:55:246313,190,8132.0,2620.0,3586.0,4362.0,3216.0,2374.0
13:31:55:248386,191,8099.0,2647.0,3608.0,4372.0,3217.0,2396.0
13:31:55:250441,192,8095.0,2663.0,3626.0,4391.0,3194.0,2393.0
13:31:55:252337,193,8091.0,2673.0,3600.0,4379.0,3202.0,2397.0
13:31:55:254417,194,8086.0,2764.0,3692.0,4435.0,3227.0,2419.0
13:31:55:256409,195,8109.0,2780.0,3718.0,4500.0,3234.0,2440.0
13:31:55:258521,196,8131.0,2739.0,3662.0,4468.0,3247.0,2444.0
13:31:55:260295,197,8130.0,2722.0,3643.0,4413.0,3234.0,2419.0
13:31:55:262339,198,8125.0,2646.0,3612.0,4386.0,3187.0,2365.0
13:31:55:264325,199,8168.0,2564.0,3565.0,4382.0,3185.0,2366.0
13:31:55:266411,200,8132.0,2572.0,3576.0,4381.0,3184.0,2401.0
13:31:55:268407,201,8110.0,2628.0,3609.0,4372.0,3190.0,2393.0
13:31:55:270436,202,8089.0,2639.0,3572.0,4394.0,3228.0,2381.0
13:31:55:272390,203,8099.0,2681.0,3600.0,4379.0,3184.0,2409.0
13:31:55:274330,204,8123.0,2764.0,3702.0,4472.0,3220.0,2409.0
13:31:55:276309,205,8163.0,2775.0,3718.0,4519.0,3216.0,2413.0
13:31:55:278311,206,8201.0,2736.0,3666.0,4468.0,3248.0,2420.0
13:31:55:280287,207,8148.0,2706.0,3609.0,4415.0,3196.0,2381.0
13:31:55:282347,208,8143.0,2645.0,3610.0,4394.0,3171.0,2401.0
13:31:55:284280,209,8119.0,2617.0,3578.0,4392.0,3198.0,2373.0
13:31:55:286335,210,8109.0,2597.0,3576.0,4391.0,3219.0,2381.0
13:31:55:288344,211,8094.0,2634.0,3566.0,4396.0,3180.0,2373.0
13:31:55:290296,212,8110.0,2652.0,3632.0,4412.0,3193.0,2384.0
13:31:55:292272,213,8112.0,2674.0,3602.0,4385.0,3238.0,2409.0
13:31:55:294537,214,8121.0,2751.0,3693.0,4465.0,3221.0,2417.0
13:31:55:296357,215,8125.0,2772.0,3718.0,4498.0,3242.0,2424.0
13:31:55:298397,216,8115.0,2732.0,3668.0,4465.0,3220.0,2398.0
13:31:55:300414,217,8104.0,2692.0,3643.0,4417.0,3210.0,2430.0
13:31:55:302428,218,8126.0,2653.0,3620.0,4394.0,3196.0,2374.0
13:31:55:304419,219,8170.0,2617.0,3545.0,4381.0,3185.0,2383.0
13:31:55:306409,220,8149.0,2621.0,3540.0,4382.0,3192.0,2401.0
13:31:55:308410,221,8110.0,2631.0,3566.0,4389.0,3195.0,2380.0
13:31:55:310445,222,8072.0,2657.0,3574.0,4394.0,3228.0,2401.0
13:31:55:312344,223,8067.0,2672.0,3600.0,4400.0,3220.0,2406.0
13:31:55:314414,224,8128.0,2765.0,3698.0,4462.0,3231.0,2421.0
13:31:55:316372,225,8141.0,2797.0,3718.0,4510.0,3236.0,2425.0
13:31:55:318378,226,8143.0,2740.0,3666.0,4463.0,3232.0,2428.0
13:31:55:320599,227,8170.0,2727.0,3618.0,4415.0,3242.0,2397.0
13:31:55:322297,228,8229.0,2661.0,3622.0,4396.0,3223.0,2399.0
13:31:55:324348,229,8203.0,2594.0,3562.0,4393.0,3190.0,2392.0
13:31:55:326380,230,8145.0,2623.0,3578.0,4382.0,3183.0,2392.0
13:31:55:328325,231,8105.0,2636.0,3602.0,4374.0,3190.0,2403.0
13:31:55:330338,232,8107.0,2674.0,3618.0,4393.0,3192.0,2388.0
13:31:55:332417,233,8101.0,2679.0,3602.0,4382.0,3211.0,2431.0
13:31:55:334390,234,8139.0,2753.0,3702.0,4474.0,3228.0,2397.0
13:31:55:336556,235,8108.0,2766.0,3716.0,4500.0,3253.0,2408.0
13:31:55:338410,236,8114.0,2724.0,3644.0,4455.0,3220.0,2417.0
13:31:55:340312,237,8131.0,2709.0,3624.0,4420.0,3223.0,2379.0
13:31:55:342420,238,8143.0,2654.0,3605.0,4401.0,3197.0,2368.0
13:31:55:344406,239,8134.0,2623.0,3581.0,4386.0,3174.0,2405.0
13:31:55:346600,240,8117.0,2636.0,3561.0,4381.0,3213.0,2398.0
13:31:55:348576,241,8087.0,2645.0,3568.0,4404.0,3233.0,2397.0
13:31:55:350441,242,8065.0,2645.0,3572.0,4404.0,3218.0,2415.0
13:31:55:352622,243,8064.0,2655.0,3634.0,4404.0,3220.0,2383.0
13:31:55:354396,244,8067.0,2732.0,3645.0,4431.0,3225.0,2402.0
13:31:55:356356,245,8115.0,2774.0,3712.0,4507.0,3235.0,2423.0
13:31:55:358354,246,8136.0,2732.0,3664.0,4466.0,3214.0,2445.0
13:31:55:360392,247,8172.0,2719.0,3646.0,4418.0,3202.0,2416.0
13:31:55:362422,248,8153.0,2657.0,3630.0,4407.0,3210.0,2399.0
13:31:55:364287,249,8164.0,2589.0,3575.0,4397.0,3226.0,2371.0
13:31:55:366323,250,8107.0,2625.0,3589.0,4362.0,3185.0,2382.0
13:31:55:368366,251,8090.0,2644.0,3567.0,4387.0,3193.0,2363.0
13:31:55:370567,252,8142.0,2638.0,3612.0,4375.0,3193.0,2395.0
13:31:55:372640,253,8145.0,2671.0,3596.0,4377.0,3233.0,2391.0
13:31:55:374393,254,8099.0,2749.0,3660.0,4431.0,3262.0,2416.0
13:31:55:376374,255,8091.0,2770.0,3746.0,4502.0,3225.0,2453.0
13:31:55:378527,0,8140.0,2746.0,3667.0,4472.0,3225.0,2416.0
13:31:55:380370,1,8161.0,2708.0,3622.0,4415.0,3214.0,2373.0
13:31:55:382412,2,8144.0,2650.0,3611.0,4386.0,3185.0,2388.0
13:31:55:384447,3,8125.0,2629.0,3544.0,4361.0,3217.0,2377.0
13:31:55:386371,4,8104.0,2633.0,3565.0,4377.0,3184.0,2386.0
13:31:55:388350,5,8089.0,2652.0,3573.0,4368.0,3214.0,2407.0
13:31:55:390370,6,8090.0,2657.0,3570.0,4384.0,3190.0,2391.0
13:31:55:392310,7,8085.0,2673.0,3595.0,4400.0,3199.0,2370.0
13:31:55:394299,8,8018.0,2727.0,3672.0,4436.0,3225.0,2440.0
13:31:55:396296,9,8078.0,2780.0,3714.0,4508.0,3234.0,2413.0
13:31:55:398381,10,8115.0,2734.0,3666.0,4469.0,3252.0,2400.0
13:31:55:400354,11,8134.0,2705.0,3610.0,4414.0,3241.0,2408.0
13:31:55:402392,12,8146.0,2645.0,3612.0,4382.0,3190.0,2389.0
13:31:55:404405,13,8113.0,2623.0,3578.0,4391.0,3186.0,2374.0
13:31:55:406459,14,8094.0,2601.0,3576.0,4370.0,3183.0,2385.0
13:31:55:408440,15,8067.0,2636.0,3564.0,4385.0,3219.0,2405.0
13:31:55:410355,16,8081.0,2662.0,3580.0,4388.0,3217.0,2397.0
13:31:55:412415,17,8065.0,2670.0,3600.0,4396.0,3207.0,2383.0
13:31:55:414440,18,8066.0,2713.0,3632.0,4423.0,3250.0,2409.0
13:31:55:416415,19,8097.0,2764.0,3716.0,4496.0,3216.0,2421.0
13:31:55:418316,20,8091.0,2740.0,3626.0,4449.0,3214.0,2422.0
13:31:55:420413,21,8096.0,2713.0,3612.0,4406.0,3212.0,2375.0
13:31:55:422529,22,8110.0,2649.0,3612.0,4385.0,3187.0,2375.0
13:31:55:424369,23,8106.0,2628.0,3566.0,4377.0,3218.0,2381.0
13:31:55:426392,24,8073.0,2623.0,3544.0,4373.0,3206.0,2385.0
13:31:55:428326,25,8095.0,2644.0,3613.0,4368.0,3202.0,2374.0
13:31:55:430320,26,8082.0,2648.0,3569.0,4383.0,3183.0,2367.0
13:31:55:432658,27,8074.0,2645.0,3572.0,4401.0,3232.0,2401.0
13:31:55:434404,28,8097.0,2733.0,3672.0,4440.0,3244.0,2434.0
13:31:55:436399,29,8122.0,2783.0,3714.0,4504.0,3232.0,2418.0
13:31:55:438348,30,8122.0,2733.0,3663.0,4473.0,3225.0,2382.0
13:31:55:440448,31,8149.0,2713.0,3612.0,4416.0,3246.0,2420.0
13:31:55:442406,32,8227.0,2655.0,3576.0,4400.0,3194.0,2399.0
13:31:55:444393,33,8179.0,2629.0,3567.0,4383.0,3188.0,2373.0
13:31:55:446862,34,8103.0,2598.0,3577.0,4382.0,3177.0,2370.0
13:31:55:448743,35,8061.0,2696.0,3566.0,4391.0,3219.0,2410.0
13:31:55:450820,36,8133.0,2635.0,3611.0,4382.0,3210.0,2373.0
13:31:55:452807,37,8077.0,2660.0,3594.0,4373.0,3220.0,2412.0
13:31:55:454793,38,8089.0,2740.0,3662.0,4433.0,3222.0,2433.0
13:31:55:456649,39,8080.0,2780.0,3716.0,4502.0,3262.0,2399.0
13:31:55:458434,40,8134.0,2732.0,3660.0,4470.0,3249.0,2421.0
13:31:55:460437,41,8106.0,2708.0,3616.0,4418.0,3205.0,2387.0
13:31:55:462365,42,8103.0,2645.0,3582.0,4408.0,3195.0,2351.0
13:31:55:464443,43,8157.0,2606.0,3572.0,4383.0,3184.0,2361.0
13:31:55:466419,44,8139.0,2607.0,3566.0,4384.0,3210.0,2381.0
13:31:55:468356,45,8014.0,2632.0,3566.0,4378.0,3222.0,2372.0
13:31:55:470335,46,8067.0,2648.0,3603.0,4380.0,3197.0,2397.0
13:31:55:472360,47,8059.0,2670.0,3603.0,4388.0,3195.0,2399.0
13:31:55:474393,48,8002.0,2839.0,3668.0,4426.0,3252.0,2397.0
13:31:55:476426,49,8058.0,2786.0,3713.0,4503.0,3258.0,2406.0
13:31:55:478404,50,8253.0,2734.0,3666.0,4468.0,3225.0,2415.0
13:31:55:480371,51,8202.0,2714.0,3609.0,4415.0,3249.0,2401.0
13:31:55:482353,52,8182.0,2648.0,3576.0,4404.0,3194.0,2400.0
13:31:55:484326,53,8136.0,2620.0,3570.0,4399.0,3179.0,2365.0
13:31:55:486448,54,8144.0,2558.0,3596.0,4361.0,3183.0,2393.0
13:31:55:488385,55,8116.0,2645.0,3562.0,4385.0,3188.0,2372.0
13:31:55:490443,56,8064.0,2647.0,3572.0,4386.0,3233.0,2403.0
13:31:55:492387,57,8035.0,2700.0,3612.0,4405.0,3194.0,2378.0
13:31:55:494421,58,8122.0,2754.0,3704.0,4470.0,3205.0,2425.0
13:31:55:496369,59,8151.0,2782.0,3718.0,4509.0,3230.0,2415.0
13:31:55:498344,60,8220.0,2742.0,3630.0,4453.0,3253.0,2409.0
13:31:55:500354,61,8168.0,2716.0,3650.0,4432.0,3202.0,2426.0
13:31:55:502443,62,8155.0,2654.0,3576.0,4412.0,3196.0,2389.0
13:31:55:504371,63,8140.0,2626.0,3596.0,4376.0,3213.0,2381.0
13:31:55:506418,64,8147.0,2603.0,3582.0,4378.0,3220.0,2375.0
13:31:55:508359,65,8126.0,2637.0,3581.0,4381.0,3212.0,2401.0
13:31:55:510342,66,8134.0,2663.0,3580.0,4396.0,3228.0,2405.0
13:31:55:512378,67,8214.0,2680.0,3602.0,4404.0,3202.0,2376.0
13:31:55:514439,68,8124.0,2752.0,3663.0,4452.0,3254.0,2409.0
13:31:55:516438,69,8106.0,2773.0,3711.0,4499.0,3234.0,2399.0
13:31:55:518587,70,8106.0,2740.0,3660.0,4465.0,3212.0,2399.0
13:31:55:520439,71,8127.0,2717.0,3601.0,4414.0,3210.0,2406.0
13:31:55:522398,72,8188.0,2648.0,3612.0,4383.0,3224.0,2402.0
13:31:55:525079,73,8147.0,2622.0,3586.0,4371.0,3209.0,2410.0
13:31:55:526399,74,8111.0,2644.0,3596.0,4351.0,3175.0,2399.0
13:31:55:528350,75,8110.0,2641.0,3608.0,4361.0,3186.0,2373.0
13:31:55:530362,76,8097.0,2642.0,3572.0,4379.0,3213.0,2377.0
13:31:55:532344,77,8069.0,2660.0,3572.0,4393.0,3188.0,2375.0
13:31:55:534364,78,8080.0,2727.0,3650.0,4433.0,3246.0,2409.0
13:31:55:536396,79,8120.0,2775.0,3718.0,4510.0,3263.0,2407.0
13:31:55:538315,80,8150.0,2731.0,3666.0,4465.0,3210.0,2431.0
13:31:55:540466,81,8147.0,2705.0,3653.0,4438.0,3244.0,2436.0
13:31:55:542797,82,8143.0,2661.0,3592.0,4405.0,3178.0,2393.0
13:31:55:544420,83,8152.0,2636.0,3567.0,4390.0,3187.0,2361.0
13:31:55:546542,84,8183.0,2617.0,3566.0,4385.0,3184.0,2363.0
13:31:55:548517,85,8119.0,2617.0,3561.0,4400.0,3186.0,2389.0
13:31:55:550444,86,8132.0,2646.0,3574.0,4388.0,3224.0,2377.0
13:31:55:552861,87,8110.0,2664.0,3598.0,4382.0,3203.0,2419.0
13:31:55:554464,88,8132.0,2748.0,3634.0,4414.0,3227.0,2409.0
13:31:55:556621,89,8127.0,2808.0,3748.0,4514.0,3234.0,2403.0
13:31:55:558450,90,8144.0,2737.0,3666.0,4469.0,3258.0,2431.0
13:31:55:560387,91,8216.0,2711.0,3612.0,4419.0,3214.0,2384.0
13:31:55:562477,92,8140.0,2644.0,3588.0,4400.0,3194.0,2398.0
13:31:55:564544,93,8099.0,2631.0,3556.0,4390.0,3213.0,2399.0
13:31:55:566458,94,8135.0,2589.0,3579.0,4393.0,3188.0,2403.0
13:31:55:568465,95,8117.0,2632.0,3610.0,4381.0,3190.0,2384.0
13:31:55:570420,96,8126.0,2638.0,3604.0,4364.0,3214.0,2399.0
13:31:55:572354,97,8114.0,2650.0,3594.0,4399.0,3227.0,2387.0
13:31:55:574322,98,8042.0,2733.0,3660.0,4437.0,3236.0,2440.0
13:31:55:576446,99,8050.0,2782.0,3717.0,4506.0,3259.0,2402.0
13:31:55:578454,100,8146.0,2736.0,3666.0,4468.0,3220.0,2403.0
13:31:55:580489,101,8165.0,2715.0,3614.0,4406.0,3195.0,2389.0
13:31:55:582428,102,8163.0,2657.0,3574.0,4403.0,3182.0,2401.0
13:31:55:584540,103,8141.0,2623.0,3540.0,4392.0,3183.0,2393.0
13:31:55:586478,104,8107.0,2620.0,3577.0,4375.0,3182.0,2365.0
13:31:55:588401,105,8094.0,2618.0,3586.0,4368.0,3187.0,2403.0
13:31:55:590392,106,8092.0,2657.0,3586.0,4386.0,3222.0,2381.0
13:31:55:592367,107,8084.0,2674.0,3638.0,4401.0,3189.0,2412.0
13:31:55:594656,108,8075.0,2734.0,3659.0,4434.0,3220.0,2433.0
13:31:55:596551,109,8124.0,2796.0,3720.0,4502.0,3235.0,2419.0
13:31:55:598828,110,8136.0,2739.0,3668.0,4470.0,3221.0,2433.0
13:31:55:600485,111,8148.0,2725.0,3647.0,4418.0,3212.0,2395.0
13:31:55:602549,112,8174.0,2653.0,3576.0,4406.0,3199.0,2367.0
13:31:55:604480,113,8186.0,2567.0,3564.0,4387.0,3183.0,2371.0
13:31:55:606387,114,8162.0,2608.0,3566.0,4389.0,3199.0,2401.0
13:31:55:608372,115,8116.0,2638.0,3566.0,4385.0,3184.0,2400.0
13:31:55:610371,116,8113.0,2642.0,3570.0,4418.0,3194.0,2373.0
13:31:55:612410,117,8113.0,2678.0,3600.0,4400.0,3189.0,2395.0
13:31:55:614366,118,8116.0,2732.0,3659.0,4430.0,3205.0,2426.0
13:31:55:616998,119,8132.0,2775.0,3714.0,4502.0,3233.0,2413.0
13:31:55:618239,120,8169.0,2754.0,3714.0,4518.0,3248.0,2396.0
13:31:55:620236,121,8218.0,2721.0,3654.0,4464.0,3211.0,2419.0
13:31:55:622239,122,8182.0,2662.0,3596.0,4420.0,3228.0,2389.0
13:31:55:624350,123,8119.0,2644.0,3560.0,4391.0,3184.0,2393.0
13:31:55:626327,124,8130.0,2623.0,3544.0,4390.0,3197.0,2352.0
13:31:55:628320,125,8102.0,2623.0,3548.0,4383.0,3217.0,2392.0
13:31:55:630442,126,8092.0,2646.0,3574.0,4389.0,3180.0,2372.0
13:31:55:632314,127,8113.0,2673.0,3602.0,4382.0,3196.0,2375.0
13:31:55:634394,128,8134.0,2739.0,3668.0,4430.0,3238.0,2417.0
13:31:55:636312,129,8142.0,2788.0,3706.0,4503.0,3236.0,2426.0
13:31:55:638261,130,8164.0,2738.0,3664.0,4462.0,3246.0,2407.0
13:31:55:640253,131,8182.0,2705.0,3608.0,4417.0,3241.0,2392.0
13:31:55:642250,132,8164.0,2619.0,3552.0,4390.0,3190.0,2364.0
13:31:55:644361,133,8163.0,2605.0,3572.0,4386.0,3211.0,2377.0
13:31:55:646300,134,8151.0,2593.0,3570.0,4381.0,3212.0,2405.0
13:31:55:648275,135,8121.0,2612.0,3579.0,4402.0,3223.0,2372.0
13:31:55:650266,136,8139.0,2650.0,3570.0,4395.0,3230.0,2403.0
13:31:55:652314,137,8113.0,2676.0,3606.0,4377.0,3198.0,2381.0
13:31:55:654378,138,8146.0,2751.0,3682.0,4435.0,3218.0,2394.0
13:31:55:656390,139,8139.0,2772.0,3716.0,4506.0,3263.0,2426.0
13:31:55:658935,140,8161.0,2739.0,3634.0,4452.0,3236.0,2389.0
13:31:55:660385,141,8170.0,2694.0,3607.0,4409.0,3217.0,2391.0
13:31:55:662510,142,8167.0,2652.0,3574.0,4396.0,3222.0,2399.0
13:31:55:664444,143,8142.0,2618.0,3586.0,4367.0,3218.0,2401.0
13:31:55:666828,144,8147.0,2617.0,3576.0,4388.0,3212.0,2371.0
13:31:55:668409,145,8170.0,2639.0,3566.0,4381.0,3193.0,2397.0
13:31:55:670397,146,8079.0,2650.0,3610.0,4356.0,3213.0,2370.0
13:31:55:672356,147,8085.0,2668.0,3640.0,4390.0,3197.0,2394.0
13:31:55:674369,148,8118.0,2729.0,3662.0,4461.0,3220.0,2407.0
13:31:55:676486,149,8118.0,2770.0,3714.0,4502.0,3247.0,2405.0
13:31:55:678346,150,8132.0,2738.0,3666.0,4466.0,3259.0,2395.0
13:31:55:680331,151,8138.0,2717.0,3618.0,4411.0,3195.0,2408.0
13:31:55:682438,152,8144.0,2645.0,3590.0,4400.0,3228.0,2402.0
13:31:55:684369,153,8108.0,2635.0,3554.0,4368.0,3175.0,2398.0
13:31:55:686406,154,8058.0,2621.0,3592.0,4370.0,3175.0,2370.0
13:31:55:688351,155,8087.0,2632.0,3562.0,4374.0,3192.0,2409.0
13:31:55:690416,156,8144.0,2647.0,3578.0,4388.0,3215.0,2411.0
13:31:55:692356,157,8132.0,2684.0,3600.0,4375.0,3199.0,2383.0
13:31:55:694471,158,8111.0,2748.0,3670.0,4431.0,3228.0,2436.0
13:31:55:696377,159,8123.0,2805.0,3727.0,4502.0,3235.0,2421.0
13:31:55:698402,160,8142.0,2752.0,3703.0,4508.0,3226.0,2395.0
13:31:55:700431,161,8155.0,2710.0,3641.0,4424.0,3236.0,2399.0
13:31:55:702392,162,8139.0,2661.0,3594.0,4407.0,3194.0,2402.0
13:31:55:704407,163,8148.0,2637.0,3572.0,4386.0,3215.0,2376.0
13:31:55:706406,164,8106.0,2638.0,3602.0,4366.0,3208.0,2393.0
13:31:55:708345,165,8095.0,2623.0,3582.0,4370.0,3186.0,2383.0
13:31:55:710333,166,8075.0,2644.0,3568.0,4384.0,3223.0,2394.0
13:31:55:712388,167,8089.0,2681.0,3600.0,4371.0,3201.0,2376.0
13:31:55:714317,168,8072.0,2744.0,3667.0,4435.0,3224.0,2409.0
13:31:55:716325,169,8113.0,2777.0,3717.0,4500.0,3270.0,2436.0
13:31:55:718318,170,8122.0,2762.0,3706.0,4490.0,3217.0,2437.0
13:31:55:720342,171,8159.0,2727.0,3656.0,4453.0,3240.0,2422.0
13:31:55:722266,172,8093.0,2646.0,3608.0,4398.0,3202.0,2372.0
13:31:55:724274,173,8067.0,2583.0,3570.0,4388.0,3192.0,2399.0
13:31:55:726355,174,8074.0,2617.0,3576.0,4387.0,3188.0,2389.0
13:31:55:728326,175,8127.0,2636.0,3570.0,4384.0,3200.0,2407.0
13:31:55:730396,176,8114.0,2646.0,3574.0,4380.0,3194.0,2395.0
13:31:55:732951,177,8073.0,2664.0,3630.0,4400.0,3224.0,2386.0
13:31:55:734360,178,8056.0,2773.0,3679.0,4432.0,3252.0,2389.0
13:31:55:736376,179,8097.0,2776.0,3718.0,4507.0,3262.0,2409.0
13:31:55:738345,180,8115.0,2738.0,3661.0,4456.0,3222.0,2404.0
13:31:55:740399,181,8116.0,2708.0,3613.0,4415.0,3210.0,2386.0
13:31:55:742538,182,8131.0,2636.0,3576.0,4397.0,3233.0,2378.0
13:31:55:744365,183,8129.0,2627.0,3563.0,4383.0,3183.0,2380.0
13:31:55:746449,184,8144.0,2628.0,3612.0,4368.0,3185.0,2405.0
13:31:55:748357,185,8125.0,2605.0,3582.0,4380.0,3186.0,2401.0
13:31:55:750313,186,8108.0,2642.0,3600.0,4376.0,3212.0,2405.0
13:31:55:752282,187,8110.0,2652.0,3578.0,4404.0,3199.0,2402.0
13:31:55:754305,188,8104.0,2751.0,3668.0,4436.0,3220.0,2425.0
13:31:55:756267,189,8082.0,2773.0,3724.0,4504.0,3235.0,2416.0
13:31:55:758350,190,8088.0,2744.0,3667.0,4466.0,3219.0,2388.0
13:31:55:760356,191,8195.0,2722.0,3622.0,4407.0,3213.0,2415.0
13:31:55:762267,192,8131.0,2667.0,3581.0,4419.0,3223.0,2388.0
13:31:55:764248,193,8065.0,2638.0,3566.0,4386.0,3208.0,2367.0
13:31:55:766315,194,8035.0,2599.0,3562.0,4386.0,3204.0,2380.0
13:31:55:768339,195,8087.0,2648.0,3604.0,4373.0,3186.0,2397.0
13:31:55:770333,196,8106.0,2658.0,3614.0,4387.0,3184.0,2378.0
13:31:55:772251,197,8136.0,2673.0,3646.0,4401.0,3198.0,2397.0
13:31:55:774582,198,8061.0,2743.0,3666.0,4437.0,3214.0,2396.0
13:31:55:776401,199,8132.0,2772.0,3720.0,4506.0,3261.0,2385.0
13:31:55:778299,200,8161.0,2720.0,3670.0,4470.0,3225.0,2421.0
13:31:55:780276,201,8172.0,2711.0,3612.0,4415.0,3221.0,2403.0
13:31:55:782216,202,8131.0,2660.0,3594.0,4398.0,3204.0,2373.0
13:31:55:784364,203,8132.0,2640.0,3602.0,4369.0,3186.0,2390.0
13:31:55:786319,204,8107.0,2637.0,3604.0,4365.0,3181.0,2399.0
13:31:55:788423,205,8091.0,2636.0,3570.0,4378.0,3188.0,2384.0
13:31:55:791092,206,8055.0,2661.0,3576.0,4391.0,3192.0,2389.0
13:31:55:792237,207,8024.0,2664.0,3600.0,4376.0,3232.0,2388.0
13:31:55:794354,208,8091.0,2756.0,3682.0,4454.0,3217.0,2401.0
13:31:55:796289,209,8184.0,2770.0,3714.0,4515.0,3237.0,2417.0
13:31:55:798292,210,8155.0,2740.0,3670.0,4470.0,3218.0,2401.0
13:31:55:800345,211,8174.0,2718.0,3626.0,4430.0,3219.0,2413.0
13:31:55:802486,212,8158.0,2659.0,3589.0,4407.0,3228.0,2397.0
13:31:55:804541,213,8135.0,2618.0,3586.0,4365.0,3188.0,2375.0
13:31:55:806375,214,8105.0,2623.0,3572.0,4389.0,3214.0,2405.0
13:31:55:808248,215,8081.0,2636.0,3573.0,4386.0,3182.0,2394.0
13:31:55:811581,216,8066.0,2653.0,3604.0,4382.0,3189.0,2369.0
13:31:55:812564,217,8037.0,2670.0,3604.0,4368.0,3202.0,2410.0
13:31:55:814400,218,8076.0,2759.0,3704.0,4467.0,3248.0,2429.0
13:31:55:816499,219,8093.0,2777.0,3715.0,4502.0,3236.0,2413.0
13:31:55:818364,220,8118.0,2736.0,3667.0,4469.0,3238.0,2396.0
13:31:55:820395,221,8131.0,2717.0,3634.0,4415.0,3223.0,2413.0
13:31:55:822423,222,8121.0,2667.0,3589.0,4410.0,3180.0,2353.0
13:31:55:824277,223,8119.0,2612.0,3571.0,4408.0,3178.0,2391.0
13:31:55:826348,224,8090.0,2610.0,3563.0,4398.0,3218.0,2379.0
13:31:55:828397,225,8111.0,2644.0,3567.0,4391.0,3190.0,2370.0
13:31:55:830335,226,8116.0,2657.0,3577.0,4402.0,3194.0,2398.0
13:31:55:832436,227,8091.0,2663.0,3620.0,4368.0,3229.0,2415.0
13:31:55:834358,228,8059.0,2747.0,3668.0,4437.0,3212.0,2391.0
13:31:55:836451,229,8089.0,2775.0,3716.0,4506.0,3228.0,2423.0
13:31:55:838408,230,8101.0,2730.0,3666.0,4471.0,3231.0,2393.0
13:31:55:840323,231,8103.0,2725.0,3616.0,4428.0,3234.0,2415.0
13:31:55:842520,232,8101.0,2660.0,3587.0,4405.0,3195.0,2389.0
13:31:55:844956,233,8099.0,2593.0,3583.0,4388.0,3186.0,2380.0
13:31:55:846339,234,8107.0,2596.0,3580.0,4389.0,3204.0,2371.0
13:31:55:848324,235,8074.0,2626.0,3594.0,4369.0,3207.0,2380.0
13:31:55:850453,236,8043.0,2653.0,3576.0,4386.0,3183.0,2398.0
13:31:55:852391,237,8053.0,2637.0,3592.0,4405.0,3198.0,2410.0
13:31:55:854447,238,8077.0,2748.0,3664.0,4438.0,3231.0,2413.0
13:31:55:856393,239,8101.0,2770.0,3720.0,4508.0,3258.0,2424.0
13:31:55:858482,240,8143.0,2736.0,3668.0,4470.0,3216.0,2421.0
13:31:55:860444,241,8154.0,2703.0,3623.0,4420.0,3216.0,2421.0
13:31:55:862392,242,8139.0,2657.0,3577.0,4400.0,3228.0,2395.0
13:31:55:865620,243,8081.0,2650.0,3562.0,4387.0,3192.0,2404.0
13:31:55:866229,244,8089.0,2631.0,3556.0,4361.0,3181.0,2363.0
13:31:55:868327,245,8132.0,2598.0,3583.0,4379.0,3220.0,2384.0
13:31:55:870983,246,8075.0,2638.0,3564.0,4384.0,3218.0,2380.0
13:31:55:872309,247,8030.0,2670.0,3615.0,4370.0,3189.0,2383.0
13:31:55:874336,248,8011.0,2739.0,3660.0,4424.0,3224.0,2418.0
13:31:55:876533,249,8088.0,2772.0,3717.0,4499.0,3234.0,2411.0
13:31:55:878481,250,8101.0,2749.0,3693.0,4473.0,3247.0,2388.0
13:31:55:880347,251,8112.0,2710.0,3632.0,4457.0,3220.0,2378.0
13:31:55:882383,252,8074.0,2624.0,3588.0,4412.0,3196.0,2366.0
13:31:55:884361,253,8073.0,2575.0,3574.0,4393.0,3180.0,2377.0
13:31:55:886341,254,8089.0,2615.0,3571.0,4379.0,3186.0,2373.0
13:31:55:888420,255,8077.0,2636.0,3560.0,4382.0,3220.0,2388.0
13:31:55:890318,0,8070.0,2646.0,3578.0,4391.0,3187.0,2403.0
13:31:55:892437,1,8059.0,2669.0,3595.0,4381.0,3202.0,2382.0
13:31:55:894299,2,8054.0,2751.0,3668.0,4430.0,3233.0,2407.0
13:31:55:896400,3,8058.0,2771.0,3716.0,4506.0,3233.0,2422.0
13:31:55:898468,4,8124.0,2736.0,3691.0,4464.0,3249.0,2391.0
13:31:55:900339,5,8116.0,2708.0,3610.0,4423.0,3250.0,2396.0
13:31:55:902351,6,8118.0,2646.0,3586.0,4404.0,3224.0,2404.0
13:31:55:904331,7,8089.0,2619.0,3586.0,4373.0,3196.0,2383.0
13:31:55:906323,8,8088.0,2623.0,3572.0,4390.0,3211.0,2390.0
13:31:55:908331,9,8067.0,2637.0,3562.0,4382.0,3168.0,2385.0
13:31:55:910422,10,8043.0,2668.0,3583.0,4410.0,3222.0,2407.0
13:31:55:912351,11,8055.0,2678.0,3598.0,4397.0,3198.0,2411.0
13:31:55:914760,12,8053.0,2745.0,3666.0,4442.0,3223.0,2438.0
13:31:55:916302,13,8081.0,2795.0,3720.0,4510.0,3242.0,2411.0
13:31:55:918397,14,8093.0,2749.0,3670.0,4473.0,3263.0,2393.0
13:31:55:920527,15,8125.0,2715.0,3616.0,4422.0,3209.0,2381.0
13:31:55:922512,16,8103.0,2649.0,3618.0,4388.0,3221.0,2378.0
13:31:55:924492,17,8097.0,2628.0,3563.0,4381.0,3165.0,2395.0
13:31:55:926466,18,8078.0,2621.0,3578.0,4381.0,3210.0,2377.0
13:31:55:928343,19,8069.0,2644.0,3620.0,4389.0,3207.0,2382.0
13:31:55:930316,20,8119.0,2655.0,3602.0,4372.0,3202.0,2377.0
13:31:55:932280,21,8130.0,2660.0,3577.0,4385.0,3223.0,2375.0
13:31:55:934398,22,8059.0,2728.0,3650.0,4418.0,3246.0,2421.0
13:31:55:936294,23,8050.0,2772.0,3720.0,4503.0,3265.0,2437.0
13:31:55:938350,24,8072.0,2757.0,3700.0,4510.0,3250.0,2420.0
13:31:55:940284,25,8030.0,2709.0,3652.0,4440.0,3204.0,2392.0
13:31:55:942258,26,8020.0,2664.0,3588.0,4412.0,3186.0,2404.0
13:31:55:944481,27,8081.0,2633.0,3610.0,4370.0,3210.0,2397.0
13:31:55:946390,28,8074.0,2628.0,3600.0,4358.0,3186.0,2369.0
13:31:55:948447,29,8045.0,2638.0,3572.0,4392.0,3224.0,2383.0
13:31:55:950374,30,8031.0,2653.0,3570.0,4390.0,3231.0,2376.0
13:31:55:952353,31,8053.0,2676.0,3594.0,4365.0,3208.0,2397.0
13:31:55:954318,32,8035.0,2737.0,3664.0,4430.0,3251.0,2431.0
13:31:55:956301,33,8127.0,2779.0,3719.0,4503.0,3233.0,2409.0
13:31:55:958332,34,8109.0,2748.0,3667.0,4467.0,3215.0,2434.0
13:31:55:960333,35,8119.0,2713.0,3630.0,4415.0,3241.0,2391.0
13:31:55:962324,36,8075.0,2653.0,3580.0,4400.0,3198.0,2366.0
13:31:55:964427,37,8082.0,2608.0,3572.0,4383.0,3194.0,2375.0
13:31:55:966401,38,8066.0,2585.0,3572.0,4378.0,3176.0,2381.0
13:31:55:968310,39,8037.0,2633.0,3598.0,4376.0,3219.0,2397.0
13:31:55:970264,40,8060.0,2630.0,3574.0,4383.0,3215.0,2377.0
13:31:55:972303,41,8043.0,2672.0,3612.0,4399.0,3201.0,2378.0
13:31:55:974294,42,8044.0,2750.0,3664.0,4438.0,3220.0,2389.0
13:31:55:976452,43,8079.0,2774.0,3718.0,4502.0,3256.0,2422.0
13:31:55:978419,44,8075.0,2736.0,3668.0,4474.0,3216.0,2407.0
13:31:55:980406,45,8071.0,2719.0,3649.0,4425.0,3210.0,2379.0
13:31:55:982400,46,8072.0,2662.0,3579.0,4417.0,3173.0,2393.0
13:31:55:984416,47,8064.0,2625.0,3574.0,4391.0,3180.0,2380.0
13:31:55:986410,48,8028.0,2618.0,3574.0,4393.0,3176.0,2399.0
13:31:55:988362,49,8029.0,2632.0,3573.0,4394.0,3182.0,2395.0
13:31:55:990381,50,8009.0,2657.0,3578.0,4392.0,3182.0,2359.0
13:31:55:992402,51,8010.0,2647.0,3574.0,4397.0,3194.0,2361.0
13:31:55:994495,52,8026.0,2712.0,3660.0,4435.0,3220.0,2434.0
13:31:55:996372,53,8063.0,2779.0,3718.0,4507.0,3260.0,2423.0
13:31:55:998385,54,8051.0,2733.0,3659.0,4470.0,3259.0,2414.0
13:31:56:000386,55,8089.0,2714.0,3624.0,4425.0,3238.0,2420.0
13:31:56:002324,56,8130.0,2663.0,3630.0,4402.0,3220.0,2406.0
13:31:56:004372,57,8103.0,2632.0,3606.0,4372.0,3211.0,2384.0
13:31:56:006402,58,8076.0,2632.0,3590.0,4354.0,3180.0,2361.0
13:31:56:008414,59,8071.0,2622.0,3588.0,4369.0,3226.0,2403.0
13:31:56:010389,60,8072.0,2645.0,3574.0,4388.0,3213.0,2382.0
13:31:56:012351,61,8042.0,2673.0,3588.0,4402.0,3216.0,2396.0
13:31:56:014380,62,8049.0,2725.0,3660.0,4442.0,3217.0,2402.0
13:31:56:016330,63,8025.0,2764.0,3711.0,4501.0,3232.0,2435.0
13:31:56:018384,64,8092.0,2742.0,3702.0,4466.0,3254.0,2409.0
13:31:56:020437,65,8132.0,2695.0,3610.0,4422.0,3208.0,2415.0
13:31:56:022387,66,8159.0,2663.0,3594.0,4406.0,3196.0,2397.0
13:31:56:024362,67,8151.0,2627.0,3564.0,4390.0,3188.0,2369.0
13:31:56:026398,68,8139.0,2622.0,3583.0,4381.0,3216.0,2407.0
13:31:56:028338,69,8105.0,2644.0,3609.0,4364.0,3189.0,2421.0
13:31:56:030395,70,8046.0,2642.0,3568.0,4384.0,3207.0,2407.0
13:31:56:032385,71,8024.0,2697.0,3595.0,4396.0,3206.0,2385.0
13:31:56:034395,72,8015.0,2739.0,3678.0,4434.0,3222.0,2428.0
13:31:56:036480,73,8051.0,2780.0,3722.0,4503.0,3265.0,2452.0
13:31:56:038376,74,8093.0,2760.0,3702.0,4508.0,3224.0,2434.0
13:31:56:040372,75,8106.0,2735.0,3651.0,4460.0,3209.0,2416.0
13:31:56:042326,76,8086.0,2663.0,3578.0,4421.0,3224.0,2392.0
13:31:56:044396,77,8131.0,2604.0,3586.0,4376.0,3220.0,2385.0
13:31:56:046387,78,8102.0,2618.0,3542.0,4382.0,3165.0,2388.0
13:31:56:048399,79,8095.0,2642.0,3564.0,4381.0,3176.0,2399.0
13:31:56:050383,80,8081.0,2639.0,3572.0,4383.0,3192.0,2369.0
13:31:56:052444,81,8073.0,2665.0,3592.0,4376.0,3222.0,2402.0
13:31:56:054405,82,8075.0,2756.0,3689.0,4453.0,3210.0,2436.0
13:31:56:056335,83,8097.0,2802.0,3729.0,4517.0,3271.0,2439.0
13:31:56:058341,84,8115.0,2768.0,3704.0,4513.0,3218.0,2385.0
13:31:56:060340,85,8102.0,2687.0,3616.0,4436.0,3232.0,2392.0
13:31:56:062362,86,8122.0,2655.0,3574.0,4404.0,3185.0,2397.0
13:31:56:064390,87,8126.0,2628.0,3594.0,4369.0,3177.0,2378.0
13:31:56:066429,88,8097.0,2636.0,3556.0,4378.0,3181.0,2384.0
13:31:56:068431,89,8036.0,2631.0,3567.0,4385.0,3189.0,2365.0
13:31:56:070321,90,8030.0,2638.0,3576.0,4388.0,3218.0,2399.0
13:31:56:072411,91,8028.0,2669.0,3588.0,4372.0,3229.0,2405.0
13:31:56:074327,92,8038.0,2746.0,3674.0,4433.0,3246.0,2421.0
13:31:56:076413,93,8069.0,2780.0,3746.0,4502.0,3268.0,2444.0
13:31:56:078414,94,8072.0,2742.0,3648.0,4470.0,3220.0,2431.0
13:31:56:080354,95,8095.0,2711.0,3624.0,4420.0,3216.0,2429.0
13:31:56:082348,96,8088.0,2656.0,3636.0,4402.0,3223.0,2402.0
13:31:56:084422,97,8103.0,2615.0,3564.0,4384.0,3199.0,2376.0
13:31:56:086415,98,8086.0,2610.0,3570.0,4386.0,3191.0,2385.0
13:31:56:088329,99,8071.0,2604.0,3582.0,4384.0,3191.0,2403.0
13:31:56:090325,100,8068.0,2647.0,3567.0,4387.0,3197.0,2394.0
13:31:56:092341,101,8077.0,2658.0,3594.0,4402.0,3201.0,2383.0
13:31:56:094399,102,8078.0,2743.0,3663.0,4432.0,3248.0,2439.0
13:31:56:096410,103,8054.0,2790.0,3727.0,4508.0,3240.0,2438.0
13:31:56:098400,104,8071.0,2717.0,3645.0,4463.0,3222.0,2404.0
13:31:56:100443,105,8112.0,2706.0,3647.0,4415.0,3230.0,2401.0
13:31:56:102375,106,8111.0,2657.0,3620.0,4414.0,3219.0,2375.0
13:31:56:104383,107,8116.0,2566.0,3572.0,4393.0,3211.0,2396.0
13:31:56:106368,108,8091.0,2623.0,3576.0,4387.0,3171.0,2400.0
13:31:56:108400,109,8087.0,2631.0,3566.0,4392.0,3222.0,2372.0
13:31:56:110437,110,8087.0,2655.0,3576.0,4390.0,3221.0,2373.0
13:31:56:112378,111,8142.0,2662.0,3577.0,4402.0,3187.0,2371.0
13:31:56:114416,112,8076.0,2736.0,3662.0,4432.0,3210.0,2413.0
13:31:56:116493,113,8075.0,2765.0,3720.0,4505.0,3232.0,2413.0
13:31:56:118399,114,8097.0,2741.0,3682.0,4466.0,3206.0,2418.0
13:31:56:120434,115,8131.0,2714.0,3619.0,4424.0,3223.0,2425.0
13:31:56:122477,116,8129.0,2657.0,3594.0,4397.0,3197.0,2398.0
13:31:56:124405,117,8127.0,2632.0,3564.0,4382.0,3198.0,2368.0
13:31:56:126444,118,8128.0,2594.0,3576.0,4381.0,3212.0,2392.0
13:31:56:128388,119,8116.0,2631.0,3598.0,4376.0,3187.0,2372.0
13:31:56:130371,120,8099.0,2653.0,3590.0,4398.0,3189.0,2393.0
13:31:56:132505,121,8057.0,2660.0,3608.0,4396.0,3218.0,2388.0
13:31:56:134389,122,8011.0,2742.0,3648.0,4420.0,3246.0,2396.0
13:31:56:136439,123,8093.0,2749.0,3706.0,4500.0,3257.0,2390.0
13:31:56:138424,124,8145.0,2742.0,3666.0,4469.0,3250.0,2407.0
13:31:56:140973,125,8194.0,2709.0,3647.0,4415.0,3207.0,2411.0
13:31:56:142327,126,8201.0,2661.0,3582.0,4424.0,3190.0,2360.0
13:31:56:144463,127,8180.0,2574.0,3576.0,4409.0,3180.0,2367.0
13:31:56:146341,128,8121.0,2607.0,3592.0,4371.0,3215.0,2397.0
13:31:56:148416,129,8087.0,2640.0,3602.0,4370.0,3183.0,2365.0
13:31:56:150494,130,8065.0,2634.0,3570.0,4380.0,3223.0,2399.0
13:31:56:152411,131,8077.0,2669.0,3582.0,4406.0,3198.0,2408.0
13:31:56:154480,132,8089.0,2724.0,3645.0,4410.0,3236.0,2414.0
13:31:56:156391,133,8093.0,2768.0,3716.0,4500.0,3236.0,2415.0
13:31:56:158559,134,8130.0,2750.0,3680.0,4471.0,3249.0,2399.0
13:31:56:160479,135,8143.0,2719.0,3620.0,4427.0,3219.0,2415.0
13:31:56:162417,136,8129.0,2666.0,3591.0,4409.0,3193.0,2374.0
13:31:56:164520,137,8070.0,2623.0,3574.0,4384.0,3183.0,2385.0
13:31:56:166398,138,8091.0,2596.0,3579.0,4380.0,3182.0,2381.0
13:31:56:168955,139,8125.0,2641.0,3562.0,4392.0,3202.0,2367.0
13:31:56:170274,140,8143.0,2597.0,3597.0,4382.0,3220.0,2407.0
13:31:56:172335,141,8107.0,2647.0,3568.0,4388.0,3226.0,2419.0
13:31:56:174328,142,8059.0,2742.0,3656.0,4421.0,3251.0,2431.0
13:31:56:176347,143,8069.0,2782.0,3714.0,4500.0,3256.0,2431.0
13:31:56:178315,144,8104.0,2743.0,3671.0,4463.0,3244.0,2391.0
13:31:56:180375,145,8112.0,2691.0,3613.0,4415.0,3216.0,2393.0
13:31:56:182348,146,8141.0,2656.0,3614.0,4389.0,3192.0,2397.0
13:31:56:184385,147,8117.0,2597.0,3582.0,4378.0,3224.0,2400.0
13:31:56:186375,148,8113.0,2632.0,3599.0,4364.0,3177.0,2377.0
13:31:56:188420,149,8106.0,2637.0,3601.0,4356.0,3190.0,2372.0
13:31:56:190396,150,8086.0,2655.0,3578.0,4387.0,3191.0,2395.0
13:31:56:192395,151,8092.0,2671.0,3602.0,4370.0,3212.0,2399.0
13:31:56:194387,152,8076.0,2750.0,3664.0,4456.0,3266.0,2409.0
13:31:56:196428,153,8107.0,2771.0,3718.0,4511.0,3265.0,2431.0
13:31:56:198352,154,8104.0,2750.0,3684.0,4472.0,3246.0,2431.0
13:31:56:200389,155,8072.0,2720.0,3651.0,4445.0,3234.0,2420.0
13:31:56:202435,156,8100.0,2673.0,3582.0,4424.0,3229.0,2381.0
13:31:56:204389,157,8105.0,2630.0,3564.0,4388.0,3186.0,2370.0
13:31:56:206330,158,8064.0,2589.0,3570.0,4383.0,3192.0,2396.0
13:31:56:208358,159,8062.0,2638.0,3567.0,4400.0,3213.0,2404.0
13:31:56:210389,160,8149.0,2647.0,3580.0,4404.0,3217.0,2367.0
13:31:56:212351,161,8103.0,2631.0,3616.0,4389.0,3199.0,2402.0
13:31:56:214486,162,8090.0,2781.0,3636.0,4406.0,3217.0,2396.0
13:31:56:216345,163,8086.0,2778.0,3718.0,4493.0,3237.0,2415.0
13:31:56:218310,164,8117.0,2743.0,3665.0,4456.0,3217.0,2404.0
13:31:56:220324,165,8139.0,2718.0,3652.0,4426.0,3226.0,2369.0
13:31:56:222353,166,8044.0,2658.0,3596.0,4415.0,3227.0,2387.0
13:31:56:224327,167,8087.0,2630.0,3600.0,4376.0,3214.0,2385.0
13:31:56:226490,168,8132.0,2619.0,3536.0,4356.0,3182.0,2397.0
13:31:56:228426,169,8082.0,2640.0,3596.0,4371.0,3215.0,2418.0
13:31:56:230332,170,8071.0,2652.0,3578.0,4392.0,3217.0,2379.0
13:31:56:232385,171,8075.0,2669.0,3603.0,4410.0,3217.0,2387.0
13:31:56:234370,172,8114.0,2746.0,3660.0,4436.0,3240.0,2414.0
13:31:56:236401,173,8122.0,2768.0,3714.0,4512.0,3234.0,2411.0
13:31:56:238456,174,8173.0,2736.0,3664.0,4467.0,3232.0,2447.0
13:31:56:240461,175,8157.0,2725.0,3650.0,4432.0,3206.0,2408.0
13:31:56:242374,176,8149.0,2663.0,3580.0,4424.0,3198.0,2367.0
13:31:56:244441,177,8111.0,2634.0,3600.0,4375.0,3199.0,2379.0
13:31:56:246421,178,8107.0,2616.0,3582.0,4358.0,3173.0,2376.0
13:31:56:248441,179,8107.0,2631.0,3606.0,4372.0,3208.0,2361.0
13:31:56:250350,180,8087.0,2629.0,3560.0,4383.0,3193.0,2397.0
13:31:56:252388,181,8059.0,2659.0,3622.0,4380.0,3222.0,2386.0
13:31:56:254368,182,8062.0,2719.0,3668.0,4426.0,3233.0,2400.0
13:31:56:256406,183,8007.0,2777.0,3708.0,4494.0,3233.0,2449.0
13:31:56:258307,184,8113.0,2766.0,3666.0,4476.0,3222.0,2396.0
13:31:56:260402,185,8120.0,2710.0,3610.0,4420.0,3243.0,2394.0
13:31:56:262301,186,8117.0,2651.0,3614.0,4387.0,3192.0,2367.0
13:31:56:264498,187,8083.0,2599.0,3578.0,4394.0,3212.0,2390.0
13:31:56:266277,188,8056.0,2603.0,3578.0,4378.0,3188.0,2383.0
13:31:56:268386,189,8032.0,2637.0,3600.0,4378.0,3204.0,2393.0
13:31:56:270329,190,8019.0,2636.0,3566.0,4387.0,3220.0,2397.0
13:31:56:272418,191,8069.0,2672.0,3599.0,4379.0,3222.0,2385.0
13:31:56:274690,192,8125.0,2736.0,3666.0,4430.0,3262.0,2420.0
13:31:56:276465,193,8106.0,2780.0,3720.0,4509.0,3228.0,2395.0
13:31:56:278365,194,8123.0,2750.0,3637.0,4454.0,3224.0,2415.0
13:31:56:280339,195,8098.0,2710.0,3608.0,4415.0,3215.0,2421.0
13:31:56:282373,196,8106.0,2664.0,3580.0,4409.0,3221.0,2395.0
13:31:56:284393,197,8096.0,2652.0,3566.0,4389.0,3200.0,2396.0
13:31:56:286350,198,8161.0,2601.0,3580.0,4397.0,3184.0,2401.0
13:31:56:288398,199,8082.0,2599.0,3587.0,4370.0,3212.0,2413.0
13:31:56:290358,200,8070.0,2620.0,3590.0,4372.0,3218.0,2364.0
13:31:56:292428,201,8045.0,2641.0,3580.0,4393.0,3230.0,2408.0
13:31:56:294433,202,8024.0,2745.0,3629.0,4415.0,3220.0,2424.0
13:31:56:296400,203,8036.0,2765.0,3720.0,4505.0,3235.0,2384.0
13:31:56:298413,204,8145.0,2729.0,3670.0,4468.0,3260.0,2435.0
13:31:56:300419,205,8129.0,2725.0,3628.0,4432.0,3214.0,2424.0
13:31:56:302405,206,8130.0,2668.0,3626.0,4403.0,3223.0,2395.0
13:31:56:304290,207,8130.0,2621.0,3546.0,4396.0,3180.0,2382.0
13:31:56:306320,208,8108.0,2622.0,3580.0,4385.0,3186.0,2391.0
13:31:56:308304,209,8069.0,2632.0,3600.0,4372.0,3221.0,2373.0
13:31:56:310335,210,8063.0,2619.0,3558.0,4384.0,3216.0,2375.0
13:31:56:312393,211,8040.0,2644.0,3592.0,4401.0,3231.0,2405.0
13:31:56:314365,212,8033.0,2745.0,3629.0,4423.0,3218.0,2394.0
13:31:56:316317,213,8094.0,2788.0,3715.0,4500.0,3252.0,2431.0
13:31:56:318335,214,8085.0,2740.0,3668.0,4464.0,3243.0,2405.0
13:31:56:320348,215,8141.0,2726.0,3651.0,4424.0,3242.0,2391.0
13:31:56:322440,216,8091.0,2661.0,3600.0,4389.0,3199.0,2398.0
13:31:56:324385,217,8116.0,2639.0,3604.0,4376.0,3189.0,2387.0
13:31:56:326417,218,8084.0,2607.0,3572.0,4375.0,3180.0,2358.0
13:31:56:328395,219,8091.0,2617.0,3579.0,4384.0,3216.0,2424.0
13:31:56:330360,220,8096.0,2656.0,3612.0,4360.0,3222.0,2376.0
13:31:56:332375,221,8090.0,2663.0,3592.0,4371.0,3230.0,2390.0
13:31:56:334389,222,8103.0,2756.0,3693.0,4423.0,3219.0,2433.0
13:31:56:336377,223,8123.0,2792.0,3726.0,4508.0,3230.0,2415.0
13:31:56:338320,224,8144.0,2737.0,3666.0,4466.0,3228.0,2399.0
13:31:56:340361,225,8125.0,2709.0,3648.0,4438.0,3214.0,2402.0
13:31:56:342355,226,8171.0,2660.0,3640.0,4410.0,3208.0,2377.0
13:31:56:344336,227,8139.0,2596.0,3578.0,4386.0,3216.0,2397.0
13:31:56:346352,228,8085.0,2624.0,3589.0,4356.0,3178.0,2392.0
13:31:56:348986,229,8075.0,2633.0,3571.0,4389.0,3179.0,2385.0
13:31:56:350393,230,8036.0,2638.0,3576.0,4391.0,3222.0,2396.0
13:31:56:352333,231,8029.0,2668.0,3598.0,4374.0,3196.0,2387.0
13:31:56:354438,232,8048.0,2724.0,3664.0,4427.0,3202.0,2416.0
13:31:56:356342,233,8103.0,2773.0,3706.0,4506.0,3232.0,2424.0
13:31:56:358356,234,8110.0,2760.0,3708.0,4497.0,3247.0,2421.0
13:31:56:360362,235,8117.0,2728.0,3658.0,4464.0,3239.0,2396.0
13:31:56:362370,236,8125.0,2665.0,3630.0,4399.0,3202.0,2359.0
13:31:56:364386,237,8186.0,2599.0,3579.0,4402.0,3224.0,2385.0
13:31:56:366433,238,8139.0,2622.0,3576.0,4394.0,3212.0,2395.0
13:31:56:368364,239,8130.0,2630.0,3570.0,4385.0,3194.0,2395.0
13:31:56:370332,240,8135.0,2647.0,3566.0,4396.0,3216.0,2375.0
13:31:56:372361,241,8084.0,2645.0,3566.0,4400.0,3222.0,2412.0
13:31:56:374346,242,8036.0,2740.0,3655.0,4433.0,3238.0,2401.0
13:31:56:376363,243,8059.0,2777.0,3710.0,4501.0,3251.0,2405.0
13:31:56:378365,244,8109.0,2745.0,3668.0,4466.0,3250.0,2395.0
13:31:56:380372,245,8158.0,2715.0,3613.0,4420.0,3226.0,2401.0
13:31:56:382370,246,8131.0,2654.0,3587.0,4400.0,3190.0,2372.0
13:31:56:384399,247,8156.0,2631.0,3610.0,4376.0,3186.0,2345.0
13:31:56:386365,248,8142.0,2611.0,3576.0,4376.0,3208.0,2403.0
13:31:56:388500,249,8109.0,2631.0,3593.0,4368.0,3196.0,2367.0
13:31:56:390320,250,8090.0,2635.0,3571.0,4392.0,3202.0,2380.0
13:31:56:392336,251,8051.0,2660.0,3582.0,4415.0,3227.0,2417.0
13:31:56:394350,252,8061.0,2748.0,3661.0,4432.0,3240.0,2419.0
13:31:56:396332,253,8101.0,2781.0,3715.0,4506.0,3232.0,2416.0
13:31:56:398428,254,8150.0,2751.0,3680.0,4476.0,3230.0,2410.0
13:31:56:400381,255,8216.0,2716.0,3656.0,4441.0,3236.0,2386.0
13:31:56:402403,0,8182.0,2667.0,3582.0,4419.0,3208.0,2401.0
13:31:56:404413,1,8137.0,2623.0,3545.0,4376.0,3205.0,2410.0
13:31:56:406403,2,8108.0,2628.0,3560.0,4385.0,3181.0,2388.0
13:31:56:408434,3,8114.0,2632.0,3574.0,4379.0,3197.0,2399.0
13:31:56:410366,4,8077.0,2644.0,3576.0,4393.0,3218.0,2392.0
13:31:56:412346,5,8095.0,2657.0,3596.0,4379.0,3182.0,2407.0
13:31:56:414407,6,8077.0,2733.0,3662.0,4426.0,3250.0,2418.0
13:31:56:416391,7,8096.0,2775.0,3718.0,4500.0,3231.0,2452.0
13:31:56:418376,8,8133.0,2743.0,3631.0,4448.0,3226.0,2397.0
13:31:56:420362,9,8156.0,2716.0,3609.0,4419.0,3247.0,2419.0
13:31:56:422325,10,8170.0,2664.0,3588.0,4404.0,3232.0,2377.0
13:31:56:424319,11,8145.0,2633.0,3578.0,4390.0,3188.0,2395.0
13:31:56:426421,12,8138.0,2629.0,3564.0,4385.0,3180.0,2357.0
13:31:56:428404,13,8096.0,2612.0,3583.0,4393.0,3212.0,2405.0
13:31:56:430388,14,8071.0,2650.0,3578.0,4408.0,3194.0,2408.0
13:31:56:432575,15,8089.0,2644.0,3596.0,4396.0,3218.0,2375.0
13:31:56:434561,16,8117.0,2714.0,3654.0,4419.0,3227.0,2425.0
13:31:56:436556,17,8115.0,2772.0,3720.0,4496.0,3270.0,2436.0
13:31:56:438572,18,8063.0,2760.0,3697.0,4510.0,3213.0,2419.0
13:31:56:440592,19,8063.0,2717.0,3612.0,4424.0,3197.0,2384.0
13:31:56:442582,20,8151.0,2667.0,3636.0,4410.0,3198.0,2388.0
13:31:56:444560,21,8162.0,2637.0,3602.0,4377.0,3192.0,2387.0
13:31:56:446603,22,8131.0,2746.0,3554.0,4372.0,3188.0,2405.0
13:31:56:448364,23,8110.0,2669.0,3579.0,4370.0,3218.0,2402.0
13:31:56:450344,24,8095.0,2665.0,3592.0,4366.0,3202.0,2409.0
13:31:56:452349,25,8131.0,2669.0,3605.0,4376.0,3199.0,2411.0
13:31:56:454414,26,8151.0,2734.0,3660.0,4432.0,3246.0,2413.0
13:31:56:456415,27,8113.0,2770.0,3716.0,4508.0,3253.0,2431.0
13:31:56:458411,28,8109.0,2740.0,3666.0,4473.0,3212.0,2441.0
13:31:56:460495,29,8193.0,2726.0,3652.0,4444.0,3199.0,2381.0
13:31:56:462396,30,8200.0,2668.0,3592.0,4415.0,3189.0,2384.0
13:31:56:464345,31,8135.0,2627.0,3579.0,4385.0,3186.0,2383.0
13:31:56:466413,32,8123.0,2623.0,3577.0,4388.0,3180.0,2378.0
13:31:56:468608,33,8110.0,2617.0,3583.0,4381.0,3196.0,2360.0
13:31:56:470330,34,8101.0,2631.0,3608.0,4385.0,3184.0,2412.0
13:31:56:472320,35,8105.0,2653.0,3574.0,4391.0,3197.0,2408.0
13:31:56:474361,36,8108.0,2727.0,3660.0,4435.0,3224.0,2435.0
13:31:56:476377,37,8122.0,2782.0,3718.0,4504.0,3233.0,2405.0
13:31:56:478361,38,8110.0,2741.0,3672.0,4467.0,3236.0,2448.0
13:31:56:480369,39,8130.0,2726.0,3656.0,4442.0,3244.0,2424.0
13:31:56:482349,40,8157.0,2668.0,3594.0,4390.0,3225.0,2381.0
13:31:56:484415,41,8143.0,2603.0,3586.0,4369.0,3223.0,2367.0
13:31:56:486423,42,8098.0,2606.0,3564.0,4382.0,3169.0,2391.0
13:31:56:488663,43,8081.0,2602.0,3575.0,4381.0,3187.0,2357.0
13:31:56:490429,44,8084.0,2631.0,3607.0,4383.0,3186.0,2379.0
13:31:56:492332,45,8071.0,2655.0,3582.0,4394.0,3223.0,2395.0
13:31:56:494339,46,8085.0,2734.0,3656.0,4437.0,3225.0,2423.0
13:31:56:496397,47,8110.0,2780.0,3718.0,4501.0,3256.0,2441.0
13:31:56:498752,48,8147.0,2760.0,3710.0,4487.0,3237.0,2405.0
13:31:56:500331,49,8158.0,2708.0,3614.0,4423.0,3214.0,2393.0
13:31:56:502263,50,8141.0,2654.0,3592.0,4415.0,3222.0,2377.0
13:31:56:504408,51,8113.0,2618.0,3588.0,4374.0,3208.0,2377.0
13:31:56:506326,52,8098.0,2620.0,3583.0,4386.0,3174.0,2383.0
13:31:56:508300,53,8076.0,2636.0,3568.0,4380.0,3168.0,2372.0
13:31:56:510374,54,8089.0,2658.0,3583.0,4407.0,3188.0,2357.0
13:31:56:512380,55,8088.0,2643.0,3618.0,4408.0,3186.0,2402.0
13:31:56:514358,56,8086.0,2734.0,3658.0,4432.0,3214.0,2392.0
13:31:56:516344,57,8072.0,2769.0,3714.0,4507.0,3233.0,2407.0
13:31:56:518376,58,8127.0,2750.0,3651.0,4474.0,3220.0,2391.0
13:31:56:520362,59,8109.0,2709.0,3610.0,4421.0,3252.0,2385.0
13:31:56:522432,60,8156.0,2655.0,3613.0,4388.0,3196.0,2397.0
13:31:56:524342,61,8155.0,2615.0,3588.0,4376.0,3186.0,2388.0
13:31:56:526431,62,8142.0,2592.0,3570.0,4397.0,3214.0,2420.0
13:31:56:528431,63,8056.0,2608.0,3578.0,4397.0,3183.0,2367.0
13:31:56:530372,64,8019.0,2626.0,3612.0,4381.0,3197.0,2391.0
13:31:56:532390,65,7997.0,2673.0,3596.0,4392.0,3216.0,2387.0
13:31:56:534417,66,8059.0,2735.0,3657.0,4429.0,3220.0,2439.0
13:31:56:536398,67,8128.0,2792.0,3715.0,4496.0,3235.0,2429.0
13:31:56:538350,68,8138.0,2737.0,3679.0,4469.0,3227.0,2433.0
13:31:56:540368,69,8161.0,2775.0,3666.0,4449.0,3219.0,2396.0
13:31:56:542280,70,8137.0,2667.0,3611.0,4396.0,3199.0,2397.0
13:31:56:544422,71,8162.0,2632.0,3603.0,4378.0,3210.0,2379.0
13:31:56:546418,72,8143.0,2628.0,3564.0,4376.0,3158.0,2385.0
13:31:56:548396,73,8113.0,2643.0,3560.0,4383.0,3188.0,2364.0
13:31:56:550420,74,8090.0,2634.0,3616.0,4372.0,3190.0,2399.0
13:31:56:552392,75,8091.0,2668.0,3597.0,4377.0,3231.0,2386.0
13:31:56:554387,76,8082.0,2743.0,3660.0,4426.0,3236.0,2413.0
13:31:56:556391,77,8122.0,2772.0,3714.0,4504.0,3237.0,2427.0
13:31:56:558440,78,8175.0,2743.0,3684.0,4470.0,3227.0,2396.0
13:31:56:560485,79,8152.0,2710.0,3606.0,4422.0,3245.0,2419.0
13:31:56:562387,80,8152.0,2667.0,3624.0,4406.0,3220.0,2399.0
13:31:56:564457,81,8117.0,2630.0,3569.0,4385.0,3184.0,2395.0
13:31:56:566464,82,8103.0,2623.0,3578.0,4381.0,3219.0,2365.0
13:31:56:568412,83,8080.0,2615.0,3576.0,4383.0,3188.0,2392.0
13:31:56:570462,84,8105.0,2649.0,3571.0,4397.0,3215.0,2391.0
13:31:56:572452,85,8103.0,2621.0,3540.0,4390.0,3199.0,2402.0
13:31:56:574479,86,8035.0,2720.0,3654.0,4415.0,3227.0,2411.0
13:31:56:576401,87,8065.0,2770.0,3715.0,4513.0,3231.0,2405.0
13:31:56:578483,88,8154.0,2746.0,3689.0,4474.0,3262.0,2420.0
13:31:56:580386,89,8119.0,2719.0,3617.0,4421.0,3208.0,2429.0
13:31:56:582482,90,8123.0,2631.0,3594.0,4398.0,3183.0,2389.0
13:31:56:584450,91,8089.0,2600.0,3580.0,4391.0,3185.0,2354.0
13:31:56:586354,92,8060.0,2594.0,3578.0,4373.0,3186.0,2403.0
13:31:56:588457,93,8057.0,2613.0,3592.0,4371.0,3186.0,2371.0
13:31:56:590452,94,8018.0,2642.0,3570.0,4384.0,3183.0,2393.0
13:31:56:592417,95,7968.0,2657.0,3614.0,4378.0,3220.0,2371.0
13:31:56:594427,96,8064.0,2732.0,3656.0,4414.0,3252.0,2435.0
13:31:56:596367,97,8072.0,2777.0,3716.0,4500.0,3267.0,2449.0
13:31:56:598434,98,8117.0,2710.0,3690.0,4474.0,3242.0,2429.0
13:31:56:600437,99,8105.0,2718.0,3656.0,4444.0,3217.0,2421.0
13:31:56:602433,100,8124.0,2661.0,3597.0,4411.0,3199.0,2391.0
13:31:56:604468,101,8110.0,2592.0,3576.0,4393.0,3196.0,2397.0
13:31:56:606405,102,8094.0,2615.0,3578.0,4381.0,3189.0,2393.0
13:31:56:608415,103,8067.0,2635.0,3562.0,4388.0,3180.0,2359.0
13:31:56:610371,104,8041.0,2629.0,3578.0,4391.0,3223.0,2383.0
13:31:56:612479,105,8054.0,2668.0,3590.0,4371.0,3220.0,2403.0
13:31:56:614321,106,8062.0,2725.0,3662.0,4429.0,3220.0,2428.0
13:31:56:616280,107,8075.0,2784.0,3716.0,4502.0,3231.0,2450.0
13:31:56:618391,108,8109.0,2751.0,3680.0,4468.0,3226.0,2423.0
13:31:56:620374,109,8111.0,2722.0,3622.0,4440.0,3257.0,2387.0
13:31:56:622390,110,8130.0,2639.0,3614.0,4392.0,3181.0,2367.0
13:31:56:624347,111,8088.0,2605.0,3570.0,4383.0,3182.0,2387.0
13:31:56:626374,112,8065.0,2613.0,3577.0,4364.0,3211.0,2399.0
13:31:56:628372,113,7994.0,2636.0,3562.0,4376.0,3196.0,2377.0
13:31:56:630456,114,8048.0,2651.0,3576.0,4384.0,3222.0,2369.0
13:31:56:632399,115,8058.0,2662.0,3598.0,4395.0,3211.0,2385.0
13:31:56:634444,116,8023.0,2729.0,3660.0,4432.0,3221.0,2398.0
13:31:56:636460,117,8019.0,2773.0,3720.0,4500.0,3222.0,2419.0
13:31:56:638434,118,8103.0,2747.0,3676.0,4467.0,3224.0,2407.0
13:31:56:640399,119,8150.0,2721.0,3649.0,4432.0,3212.0,2423.0
13:31:56:642375,120,8129.0,2663.0,3594.0,4397.0,3216.0,2380.0
13:31:56:644387,121,8110.0,2631.0,3564.0,4385.0,3185.0,2393.0
13:31:56:646359,122,8115.0,2602.0,3578.0,4381.0,3181.0,2398.0
13:31:56:648364,123,8105.0,2628.0,3587.0,4350.0,3185.0,2377.0
13:31:56:650501,124,8099.0,2644.0,3618.0,4368.0,3188.0,2371.0
13:31:56:652334,125,8080.0,2662.0,3632.0,4397.0,3217.0,2389.0
13:31:56:654374,126,8114.0,2724.0,3654.0,4410.0,3252.0,2431.0
13:31:56:656459,127,8131.0,2780.0,3702.0,4500.0,3263.0,2417.0
13:31:56:658344,128,8062.0,2745.0,3670.0,4459.0,3254.0,2407.0
13:31:56:660299,129,8054.0,2716.0,3621.0,4428.0,3239.0,2409.0
13:31:56:662343,130,8112.0,2663.0,3579.0,4406.0,3196.0,2413.0
13:31:56:664273,131,8105.0,2629.0,3564.0,4391.0,3171.0,2369.0
13:31:56:666269,132,8098.0,2604.0,3580.0,4381.0,3195.0,2371.0
13:31:56:668260,133,8109.0,2632.0,3568.0,4387.0,3199.0,2390.0
13:31:56:670341,134,8133.0,2658.0,3564.0,4394.0,3232.0,2373.0
13:31:56:672325,135,8075.0,2654.0,3612.0,4384.0,3193.0,2378.0
13:31:56:674370,136,8070.0,2722.0,3650.0,4408.0,3220.0,2435.0
13:31:56:676349,137,8077.0,2781.0,3714.0,4501.0,3243.0,2439.0
13:31:56:678266,138,8097.0,2764.0,3708.0,4511.0,3231.0,2435.0
13:31:56:680338,139,8116.0,2727.0,3654.0,4451.0,3228.0,2405.0
13:31:56:682655,140,8127.0,2671.0,3582.0,4438.0,3231.0,2372.0
13:31:56:684619,141,8119.0,2608.0,3581.0,4396.0,3180.0,2395.0
13:31:56:686506,142,8105.0,2612.0,3557.0,4385.0,3176.0,2396.0
13:31:56:688388,143,8113.0,2655.0,3597.0,4376.0,3169.0,2363.0
13:31:56:690321,144,8077.0,2628.0,3610.0,4376.0,3194.0,2393.0
13:31:56:692387,145,8086.0,2649.0,3587.0,4384.0,3229.0,2408.0
13:31:56:694386,146,8055.0,2726.0,3662.0,4432.0,3219.0,2403.0
13:31:56:696652,147,8097.0,2772.0,3716.0,4508.0,3246.0,2409.0
13:31:56:698346,148,8118.0,2750.0,3647.0,4460.0,3222.0,2397.0
13:31:56:700518,149,8135.0,2719.0,3606.0,4420.0,3216.0,2385.0
13:31:56:702357,150,8141.0,2658.0,3594.0,4400.0,3201.0,2408.0
13:31:56:704510,151,8150.0,2674.0,3560.0,4389.0,3218.0,2389.0
13:31:56:706347,152,8123.0,2633.0,3564.0,4376.0,3180.0,2396.0
13:31:56:708438,153,8106.0,2636.0,3568.0,4386.0,3188.0,2367.0
13:31:56:710350,154,8106.0,2632.0,3558.0,4392.0,3191.0,2365.0
13:31:56:712377,155,8090.0,2639.0,3583.0,4397.0,3194.0,2410.0
13:31:56:715509,156,8095.0,2719.0,3618.0,4402.0,3211.0,2417.0
13:31:56:716613,157,8051.0,2770.0,3711.0,4486.0,3234.0,2425.0
13:31:56:721178,158,8057.0,2767.0,3715.0,4514.0,3254.0,2415.0
13:31:56:721412,159,8126.0,2721.0,3662.0,4455.0,3204.0,2418.0
13:31:56:730733,160,8185.0,2670.0,3633.0,4418.0,3223.0,2365.0
13:31:56:731070,161,8116.0,2609.0,3578.0,4388.0,3181.0,2405.0
13:31:56:731214,162,8101.0,2621.0,3576.0,4385.0,3172.0,2388.0
13:31:56:731296,163,8097.0,2604.0,3582.0,4389.0,3194.0,2405.0
13:31:56:731465,164,8073.0,2644.0,3612.0,4383.0,3196.0,2395.0
13:31:56:732327,165,8057.0,2646.0,3576.0,4391.0,3187.0,2371.0
13:31:56:734442,166,8063.0,2717.0,3658.0,4425.0,3247.0,2431.0
13:31:56:736453,167,8111.0,2773.0,3710.0,4494.0,3269.0,2426.0
13:31:56:738513,168,8095.0,2729.0,3668.0,4463.0,3244.0,2405.0
13:31:56:740441,169,8132.0,2717.0,3647.0,4431.0,3213.0,2419.0
13:31:56:742449,170,8145.0,2605.0,3604.0,4410.0,3202.0,2409.0
13:31:56:744550,171,8112.0,2623.0,3580.0,4397.0,3202.0,2368.0
13:31:56:746567,172,8093.0,2591.0,3556.0,4385.0,3210.0,2391.0
13:31:56:748802,173,8062.0,2636.0,3563.0,4391.0,3176.0,2373.0
13:31:56:751107,174,8067.0,2616.0,3583.0,4388.0,3189.0,2397.0
13:31:56:752450,175,8099.0,2646.0,3567.0,4394.0,3211.0,2381.0
13:31:56:755286,176,8115.0,2729.0,3642.0,4417.0,3236.0,2427.0
13:31:56:756495,177,8060.0,2768.0,3711.0,4494.0,3269.0,2449.0
13:31:56:758524,178,8102.0,2767.0,3700.0,4505.0,3208.0,2435.0
13:31:56:760396,179,8113.0,2735.0,3666.0,4453.0,3214.0,2415.0
13:31:56:762322,180,8176.0,2668.0,3632.0,4419.0,3199.0,2375.0
13:31:56:764375,181,8154.0,2630.0,3608.0,4380.0,3166.0,2363.0
13:31:56:766413,182,8100.0,2608.0,3578.0,4383.0,3182.0,2361.0
13:31:56:768518,183,8066.0,2613.0,3571.0,4390.0,3186.0,2365.0
13:31:56:770403,184,8045.0,2640.0,3602.0,4384.0,3222.0,2403.0
13:31:56:772354,185,8031.0,2652.0,3642.0,4381.0,3215.0,2382.0
13:31:56:774345,186,8035.0,2743.0,3660.0,4430.0,3252.0,2405.0
13:31:56:776366,187,8046.0,2774.0,3714.0,4488.0,3254.0,2427.0
13:31:56:778322,188,8088.0,2765.0,3704.0,4501.0,3255.0,2415.0
13:31:56:780365,189,8059.0,2731.0,3657.0,4451.0,3207.0,2417.0
13:31:56:782398,190,8117.0,2639.0,3630.0,4422.0,3195.0,2375.0
13:31:56:784730,191,8108.0,2623.0,3577.0,4389.0,3198.0,2349.0
13:31:56:786600,192,8082.0,2601.0,3566.0,4383.0,3192.0,2374.0
13:31:56:788436,193,8036.0,2609.0,3582.0,4398.0,3182.0,2369.0
13:31:56:790393,194,8056.0,2641.0,3600.0,4381.0,3191.0,2373.0
13:31:56:792322,195,8096.0,2661.0,3587.0,4375.0,3195.0,2365.0
13:31:56:794294,196,8088.0,2701.0,3618.0,4400.0,3215.0,2417.0
13:31:56:796251,197,8047.0,2768.0,3704.0,4494.0,3232.0,2421.0
13:31:56:799204,198,8061.0,2751.0,3686.0,4466.0,3220.0,2385.0
13:31:56:800343,199,8097.0,2722.0,3624.0,4434.0,3253.0,2384.0
13:31:56:802335,200,8128.0,2669.0,3596.0,4406.0,3199.0,2402.0
13:31:56:804255,201,8106.0,2640.0,3568.0,4389.0,3194.0,2375.0
13:31:56:806273,202,8101.0,2619.0,3572.0,4387.0,3214.0,2403.0
13:31:56:808295,203,8066.0,2628.0,3602.0,4372.0,3196.0,2376.0
13:31:56:810255,204,8079.0,2639.0,3608.0,4372.0,3182.0,2399.0
13:31:56:812261,205,8057.0,2665.0,3604.0,4376.0,3188.0,2421.0
13:31:56:814380,206,8107.0,2716.0,3620.0,4397.0,3219.0,2431.0
13:31:56:816864,207,8109.0,2777.0,3714.0,4496.0,3239.0,2398.0
13:31:56:818313,208,8092.0,2751.0,3664.0,4466.0,3253.0,2388.0
13:31:56:820420,209,8087.0,2696.0,3634.0,4419.0,3240.0,2413.0
13:31:56:822275,210,8143.0,2652.0,3576.0,4404.0,3219.0,2411.0
13:31:56:824284,211,8139.0,2627.0,3594.0,4365.0,3164.0,2355.0
13:31:56:826288,212,8111.0,2567.0,3529.0,4347.0,3188.0,2361.0
13:31:56:828313,213,8076.0,2599.0,3565.0,4375.0,3209.0,2359.0
13:31:56:830321,214,8089.0,2619.0,3577.0,4383.0,3196.0,2381.0
13:31:56:832330,215,8087.0,2636.0,3624.0,4395.0,3207.0,2409.0
13:31:56:834406,216,8104.0,2740.0,3660.0,4432.0,3228.0,2423.0
13:31:56:836355,217,8126.0,2772.0,3726.0,4512.0,3269.0,2437.0
13:31:56:838307,218,8155.0,2765.0,3702.0,4505.0,3245.0,2409.0
13:31:56:840283,219,8163.0,2708.0,3612.0,4417.0,3222.0,2381.0
13:31:56:842268,220,8140.0,2656.0,3574.0,4404.0,3197.0,2382.0
13:31:56:844267,221,8135.0,2590.0,3566.0,4382.0,3195.0,2385.0
13:31:56:846330,222,8079.0,2581.0,3562.0,4385.0,3205.0,2405.0
13:31:56:848714,223,8041.0,2616.0,3564.0,4380.0,3178.0,2371.0
13:31:56:850350,224,8027.0,2598.0,3582.0,4399.0,3186.0,2405.0
13:31:56:852360,225,8103.0,2666.0,3592.0,4378.0,3220.0,2393.0
13:31:56:854350,226,8130.0,2740.0,3685.0,4445.0,3223.0,2418.0
13:31:56:856401,227,8176.0,2787.0,3720.0,4512.0,3242.0,2434.0
13:31:56:858370,228,8182.0,2762.0,3704.0,4509.0,3246.0,2409.0
13:31:56:860387,229,8132.0,2703.0,3608.0,4421.0,3210.0,2417.0
13:31:56:862303,230,8147.0,2655.0,3588.0,4396.0,3192.0,2363.0
13:31:56:864408,231,8131.0,2604.0,3566.0,4387.0,3204.0,2403.0
13:31:56:866357,232,8098.0,2608.0,3572.0,4383.0,3194.0,2377.0
13:31:56:868398,233,8095.0,2625.0,3604.0,4364.0,3183.0,2379.0
13:31:56:870354,234,8090.0,2649.0,3613.0,4366.0,3197.0,2393.0
13:31:56:872382,235,8059.0,2661.0,3606.0,4376.0,3228.0,2412.0
13:31:56:874372,236,8089.0,2759.0,3707.0,4464.0,3250.0,2411.0
13:31:56:876314,237,8104.0,2788.0,3720.0,4520.0,3250.0,2399.0
13:31:56:878343,238,8120.0,2746.0,3680.0,4479.0,3227.0,2385.0
13:31:56:880365,239,8136.0,2705.0,3615.0,4448.0,3217.0,2408.0
13:31:56:882451,240,8189.0,2663.0,3566.0,4400.0,3194.0,2365.0
13:31:56:884342,241,8177.0,2589.0,3566.0,4385.0,3186.0,2373.0
13:31:56:886581,242,8118.0,2617.0,3568.0,4368.0,3187.0,2379.0
13:31:56:888314,243,8063.0,2617.0,3539.0,4371.0,3206.0,2363.0
13:31:56:890324,244,8077.0,2629.0,3565.0,4382.0,3226.0,2373.0
13:31:56:892299,245,8078.0,2662.0,3580.0,4397.0,3202.0,2380.0
13:31:56:895441,246,8111.0,2741.0,3668.0,4461.0,3233.0,2438.0
13:31:56:896437,247,8125.0,2791.0,3736.0,4532.0,3240.0,2429.0
13:31:56:898322,248,8156.0,2766.0,3716.0,4528.0,3254.0,2381.0
13:31:56:900523,249,8177.0,2707.0,3618.0,4438.0,3213.0,2403.0
13:31:56:902487,250,8192.0,2659.0,3583.0,4422.0,3196.0,2363.0
13:31:56:904313,251,8123.0,2604.0,3560.0,4388.0,3188.0,2361.0
13:31:56:906394,252,8079.0,2569.0,3530.0,4356.0,3215.0,2375.0
13:31:56:908359,253,8033.0,2622.0,3576.0,4376.0,3211.0,2399.0
13:31:56:910348,254,8050.0,2632.0,3614.0,4375.0,3200.0,2393.0
13:31:56:912342,255,8095.0,2672.0,3594.0,4390.0,3215.0,2375.0
13:31:56:914351,0,8102.0,2751.0,3630.0,4449.0,3240.0,2394.0
13:31:56:916435,1,8120.0,2789.0,3726.0,4516.0,3240.0,2446.0
13:31:56:918341,2,8146.0,2756.0,3712.0,4523.0,3228.0,2393.0
13:31:56:920325,3,8158.0,2708.0,3614.0,4422.0,3244.0,2385.0
13:31:56:922327,4,8160.0,2624.0,3614.0,4382.0,3193.0,2384.0
13:31:56:924330,5,8169.0,2612.0,3572.0,4380.0,3188.0,2388.0
13:31:56:926299,6,8129.0,2625.0,3556.0,4368.0,3181.0,2381.0
13:31:56:928308,7,8099.0,2649.0,3592.0,4362.0,3212.0,2380.0
13:31:56:930333,8,8088.0,2644.0,3568.0,4385.0,3183.0,2369.0
